,GravPotential_(km/s)^2,SphericalRadius_ckpc
0,-348694.4904851654,0.0
1,-328079.6071110257,1.0
2,-308103.0281155229,2.0
3,-293824.9976329059,3.0
4,-283178.4983781087,4.0
5,-274517.6654294397,5.0
6,-267095.42815426964,6.0
7,-260740.00062406028,7.0
8,-255150.06489974403,8.0
9,-250168.27848337463,9.0
10,-245647.62886987394,10.0
11,-241460.2746815623,11.0
12,-237674.1474263732,12.0
13,-234074.21026694067,13.0
14,-230749.19837462372,14.0
15,-227634.19294830857,15.0
16,-224645.03978705616,16.0
17,-221844.8258190045,17.0
18,-219139.008487944,18.0
19,-216588.73476798384,19.0
20,-214140.0907591319,20.0
21,-211767.55088610228,21.0
22,-209490.45490331904,22.0
23,-207311.66604467918,23.0
24,-205246.09572820843,24.0
25,-203211.40361716133,25.0
26,-201205.0402887213,26.0
27,-199339.66810284692,27.0
28,-197521.76121991005,28.0
29,-195685.62231965578,29.0
30,-193971.89465941305,30.0
31,-192294.0816435021,31.0
32,-190601.6135939732,32.0
33,-189071.23177733886,33.0
34,-187565.9762266741,34.0
35,-186033.3379165338,35.0
36,-184585.5672389149,36.0
37,-183205.89459148634,37.0
38,-181843.81734022405,38.0
39,-180485.40056650608,39.0
40,-179149.34934449958,40.0
41,-177896.39924567172,41.0
42,-176674.79903059153,42.0
43,-175467.34652685816,43.0
44,-174267.00930688155,44.0
45,-173074.38032912466,45.0
46,-171929.91638446783,46.0
47,-170866.79228195816,47.0
48,-169749.84889597143,48.0
49,-168718.17729934544,49.0
50,-167663.17547567986,50.0
51,-166651.89059255776,51.0
52,-165638.2373305419,52.0
53,-164688.5776974814,53.0
54,-163729.34458417015,54.0
55,-162776.74215685797,55.0
56,-161890.40242063493,56.0
57,-161005.08074357305,57.0
58,-160128.94805629685,58.0
59,-159285.6856377445,59.0
60,-158456.82223499936,60.0
61,-157655.66839236332,61.0
62,-156853.3937576096,62.0
63,-156051.9954385723,63.0
64,-155324.81005019517,64.0
65,-154559.76049637786,65.0
66,-153832.24478954024,66.0
67,-153130.0119088373,67.0
68,-152456.81012950707,68.0
69,-151756.26648872936,69.0
70,-151049.4362525537,70.0
71,-150416.36255084845,71.0
72,-149765.69737305236,72.0
73,-149132.8513194281,73.0
74,-148505.84450794556,74.0
75,-147919.27650470135,75.0
76,-147312.09498422768,76.0
77,-146735.78375621166,77.0
78,-146160.83970406075,78.0
79,-145617.17949384524,79.0
80,-145045.0680597365,80.0
81,-144534.81775138376,81.0
82,-144003.4284972556,82.0
83,-143482.95349552608,83.0
84,-142969.76356577195,84.0
85,-142457.6903848326,85.0
86,-141945.97613513411,86.0
87,-141439.5530599293,87.0
88,-140957.239413005,88.0
89,-140475.14219548553,89.0
90,-140009.02195753125,90.0
91,-139514.55692352547,91.0
92,-139106.60632645912,92.0
93,-138682.9387489686,93.0
94,-138219.20036933006,94.0
95,-137789.60635117977,95.0
96,-137349.64243338746,96.0
97,-136917.20599946193,97.0
98,-136506.11980570908,98.0
99,-136100.7256955683,99.0
100,-135675.66541807575,100.0
101,-135308.6802183797,101.0
102,-134907.77531489267,102.0
103,-134516.78319758468,103.0
104,-134134.27902701838,104.0
105,-133747.02081796402,105.0
106,-133381.36020887937,106.0
107,-133023.76753455927,107.0
108,-132696.45354782435,108.0
109,-132319.11987485288,109.0
110,-131935.27354814365,110.0
111,-131640.8712899364,111.0
112,-131305.16090840416,112.0
113,-130965.3982251128,113.0
114,-130638.87761992606,114.0
115,-130292.74038865471,115.0
116,-129966.95315429744,116.0
117,-129662.78496388825,117.0
118,-129419.97472084367,118.0
119,-129097.24510889847,119.0
120,-128830.6687225245,120.0
121,-128555.30604064543,121.0
122,-128224.029707456,122.0
123,-127982.37894616788,123.0
124,-127654.39999677021,124.0
125,-127383.00304671265,125.0
126,-127115.52936112559,126.0
127,-126844.83457478958,127.0
128,-126533.51398150383,128.0
129,-126351.60380642019,129.0
130,-126087.33044221446,130.0
131,-125905.62076305965,131.0
132,-125642.61301914231,132.0
133,-125439.00015759673,133.0
134,-125170.44860404871,134.0
135,-124961.55034817144,135.0
136,-124711.03214816746,136.0
137,-124479.74420438409,137.0
138,-124315.38185874012,138.0
139,-124101.24589383785,139.0
140,-123868.21648586783,140.0
141,-123658.06130155234,141.0
142,-123538.1234407417,142.0
143,-123268.76703287612,143.0
144,-123160.37962199365,144.0
145,-123008.54702782306,145.0
146,-122963.61955225212,146.0
147,-122708.27879797957,147.0
148,-122640.57238694669,148.0
149,-122461.66904856983,149.0
150,-122281.68354448117,150.0
151,-122233.38728500772,151.0
152,-122242.0281339333,152.0
153,-122152.08730806582,153.0
154,-122172.65019253906,154.0
155,-122176.86116357427,155.0
156,-122051.81109042234,156.0
157,-122184.68277558032,157.0
158,-122229.605904545,158.0
159,-122404.59239261407,159.0
160,-122468.03183699862,160.0
161,-122650.29713583496,161.0
162,-122747.5475566917,162.0
163,-122956.03461651359,163.0
164,-123301.29706990375,164.0
165,-123639.81962655166,165.0
166,-124108.27655786961,166.0
167,-124574.20718433053,167.0
168,-125193.75817859004,168.0
169,-125677.14828787888,169.0
170,-126451.71421080006,170.0
171,-127272.03949868878,171.0
172,-128364.08039916513,172.0
173,-129907.95750172033,173.0
174,-131329.88763146292,174.0
175,-133384.83547635772,175.0
176,-136008.73231550882,176.0
177,-138708.93816880425,177.0
178,-143807.41853094863,178.0
179,-150924.13891490526,179.0
180,-152080.1492824602,180.0
181,-144008.0697207562,181.0
182,-138690.32268214197,182.0
183,-135283.34069673685,183.0
184,-132433.65936522128,184.0
185,-129901.12349212226,185.0
186,-127783.77032780652,186.0
187,-126201.08217539471,187.0
188,-124605.53912902494,188.0
189,-123323.33609866306,189.0
190,-122131.25162266404,190.0
191,-121059.66646840113,191.0
192,-120220.67904981851,192.0
193,-119196.96134792033,193.0
194,-118583.03619368952,194.0
195,-118041.83377079107,195.0
196,-117425.1157571775,196.0
197,-116590.41626201475,197.0
198,-116273.3149326423,198.0
199,-115625.2831437847,199.0
200,-115109.97534816481,200.0
201,-114821.07671197213,201.0
202,-114380.73082539966,202.0
203,-113931.21649550609,203.0
204,-113593.85217267054,204.0
205,-113278.03369209016,205.0
206,-112885.24416164192,206.0
207,-112444.4437302517,207.0
208,-112337.44208255377,208.0
209,-111915.99633494463,209.0
210,-111537.55929528891,210.0
211,-111448.32370288945,211.0
212,-111194.24336167477,212.0
213,-110963.45063800733,213.0
214,-110552.60066191466,214.0
215,-110271.11485884023,215.0
216,-110047.74975421706,216.0
217,-109960.51472040032,217.0
218,-109712.01132416073,218.0
219,-109488.48966121193,219.0
220,-109294.23023301149,220.0
221,-108960.05465596676,221.0
222,-108834.86746416062,222.0
223,-108542.59910720635,223.0
224,-108385.58561009026,224.0
225,-108259.45828709575,225.0
226,-108002.53767466705,226.0
227,-107778.06830103365,227.0
228,-107609.93963073239,228.0
229,-107376.42438692697,229.0
230,-107223.95374655885,230.0
231,-107120.63477581988,231.0
232,-107035.69252428768,232.0
233,-106923.88183483711,233.0
234,-106881.71822827218,234.0
235,-106839.98741198184,235.0
236,-106937.58822937218,236.0
237,-106769.91866913479,237.0
238,-106344.75324113785,238.0
239,-105970.9149609375,239.0
240,-105663.8132237369,240.0
241,-105477.88546154494,241.0
242,-105324.14681101764,242.0
243,-105142.5852689226,243.0
244,-105011.57278444014,244.0
245,-104776.06680426946,245.0
246,-104682.54453337281,246.0
247,-104483.30311734896,247.0
248,-104487.47303452267,248.0
249,-104375.70699546374,249.0
250,-104372.59754801082,250.0
251,-104259.08055908901,251.0
252,-103898.86762111625,252.0
253,-103653.78820508125,253.0
254,-103510.57484258662,254.0
255,-103291.85708738488,255.0
256,-103147.91477892236,256.0
257,-102934.45056921298,257.0
258,-102875.84254512707,258.0
259,-102751.4487400964,259.0
260,-102565.0258864207,260.0
261,-102383.36017453391,261.0
262,-102282.54649709711,262.0
263,-102166.60152186525,263.0
264,-101954.44054594114,264.0
265,-101858.63346445977,265.0
266,-101709.48544129981,266.0
267,-101569.3830037195,267.0
268,-101510.02891032744,268.0
269,-101365.10730826014,269.0
270,-101260.32385984242,270.0
271,-101153.86349036123,271.0
272,-100990.4774277857,272.0
273,-100883.49384088216,273.0
274,-100791.99324166449,274.0
275,-100686.69769518408,275.0
276,-100512.01106187401,276.0
277,-100432.24135714919,277.0
278,-100319.97736631318,278.0
279,-100205.40613008656,279.0
280,-100155.14648246307,280.0
281,-100070.22851803839,281.0
282,-99914.512975,282.0
283,-99806.08541675814,283.0
284,-99713.69680162656,284.0
285,-99706.34993519168,285.0
286,-99618.64985424778,286.0
287,-99403.03132424406,287.0
288,-99212.66364377932,288.0
289,-99116.7010230186,289.0
290,-98882.0497124566,290.0
291,-98796.40358691243,291.0
292,-98717.98785433371,292.0
293,-98671.87549605219,293.0
294,-98537.66166799444,294.0
295,-98482.16859239177,295.0
296,-98316.46387612158,296.0
297,-98265.06848993101,297.0
298,-98150.49653682167,298.0
299,-98133.02345626835,299.0
300,-97894.60979147766,300.0
301,-97867.23804381535,301.0
302,-97698.10369639295,302.0
303,-97613.07394037356,303.0
304,-97540.70065415568,304.0
305,-97438.36754021044,305.0
306,-97364.58349212998,306.0
307,-97294.80841905187,307.0
308,-97237.05736820133,308.0
309,-97155.50722176417,309.0
310,-97055.8180017499,310.0
311,-96948.34705973275,311.0
312,-96898.14616900099,312.0
313,-96784.86235585633,313.0
314,-96710.29934646713,314.0
315,-96667.12407367377,315.0
316,-96583.82572828779,316.0
317,-96510.33411445524,317.0
318,-96486.378808847,318.0
319,-96384.86075914634,319.0
320,-96368.06946909243,320.0
321,-96510.33624513574,321.0
322,-96443.53307020276,322.0
323,-96189.4876668283,323.0
324,-95961.28426747565,324.0
325,-95812.12091462675,325.0
326,-95785.33522755242,326.0
327,-95626.57978738584,327.0
328,-95495.59981132674,328.0
329,-95483.85288351846,329.0
330,-95377.75233550796,330.0
331,-95356.72619520835,331.0
332,-95239.00458700089,332.0
333,-95123.68488262604,333.0
334,-95036.06679370422,334.0
335,-94983.81777143224,335.0
336,-94939.98684874408,336.0
337,-94833.6287888436,337.0
338,-94679.1021743408,338.0
339,-94583.00224260672,339.0
340,-94496.31700882883,340.0
341,-94507.18958435152,341.0
342,-94376.13209353863,342.0
343,-94348.2248193279,343.0
344,-94215.12794955116,344.0
345,-94148.6392553564,345.0
346,-94060.38919485593,346.0
347,-94085.0384748836,347.0
348,-94043.12770923774,348.0
349,-94017.85510940925,349.0
350,-93950.39218877525,350.0
351,-93845.31961496986,351.0
352,-93812.21206102589,352.0
353,-93685.85083136853,353.0
354,-93542.32695135528,354.0
355,-93408.28768910741,355.0
356,-93340.1879117815,356.0
357,-93212.45874142679,357.0
358,-93215.6296528105,358.0
359,-93142.46057165037,359.0
360,-93094.70043232209,360.0
361,-92927.00966220873,361.0
362,-92911.71601014689,362.0
363,-92867.7360784716,363.0
364,-92852.09424990813,364.0
365,-92766.29374399615,365.0
366,-92494.88337260507,366.0
367,-92370.93534663347,367.0
368,-92326.54958865422,368.0
369,-92332.15863597974,369.0
370,-92250.63369897015,370.0
371,-92197.03762943787,371.0
372,-92191.18180529788,372.0
373,-92122.8802668895,373.0
374,-92064.39474628006,374.0
375,-91975.3399552912,375.0
376,-91826.63141947048,376.0
377,-91783.0662169474,377.0
378,-91799.42284655168,378.0
379,-91726.97043579022,379.0
380,-91683.28864988059,380.0
381,-91631.81827325706,381.0
382,-91576.78251460486,382.0
383,-91509.39138861565,383.0
384,-91474.99482850413,384.0
385,-91402.13180607044,385.0
386,-91323.90908828213,386.0
387,-91282.67375216006,387.0
388,-91252.09913627668,388.0
389,-91160.47818122372,389.0
390,-91240.19270066601,390.0
391,-91572.72356647554,391.0
392,-91519.9932888716,392.0
393,-91267.60338697604,393.0
394,-91099.31314433803,394.0
395,-91035.88675775092,395.0
396,-90895.02025982959,396.0
397,-90724.85259162055,397.0
398,-90762.74763981675,398.0
399,-90679.66713076447,399.0
400,-90729.42918801514,400.0
401,-90730.67212439037,401.0
402,-90575.97750922588,402.0
403,-90462.52288704,403.0
404,-90381.39939469914,404.0
405,-90323.8580487822,405.0
406,-90260.05136116216,406.0
407,-90169.87918165221,407.0
408,-90130.4344828249,408.0
409,-90145.54277739047,409.0
410,-90161.25408533057,410.0
411,-90105.88383880927,411.0
412,-90094.72969654307,412.0
413,-90080.17258252336,413.0
414,-90052.78073100059,414.0
415,-90053.15208748243,415.0
416,-89967.83987992333,416.0
417,-89945.74253752409,417.0
418,-89959.27910520657,418.0
419,-89975.91725797478,419.0
420,-89919.63744897959,420.0
421,-89889.56323735749,421.0
422,-89895.63539688427,422.0
423,-89986.54088057343,423.0
424,-89851.7275721605,424.0
425,-90052.63985800228,425.0
426,-90104.34917302847,426.0
427,-90059.78499289522,427.0
428,-90080.35284084268,428.0
429,-90242.65375985588,429.0
430,-90266.60596178073,430.0
431,-90357.82582315065,431.0
432,-90325.08595269073,432.0
433,-90425.74477405944,433.0
434,-90382.52000650566,434.0
435,-90615.01442520822,435.0
436,-90764.77000810788,436.0
437,-91065.84648725062,437.0
438,-91189.53762493336,438.0
439,-91475.56254783331,439.0
440,-91797.71336610487,440.0
441,-92204.89771591785,441.0
442,-92643.22995908152,442.0
443,-93250.71010967603,443.0
444,-94146.78271175388,444.0
445,-94517.92639687216,445.0
446,-93555.252322432,446.0
447,-92658.14855856147,447.0
448,-91912.35357617498,448.0
449,-91352.57983400841,449.0
450,-90824.48118361928,450.0
451,-90477.86241078898,451.0
452,-90178.87336843216,452.0
453,-90095.9791847203,453.0
454,-90015.2471955795,454.0
455,-89730.93301696429,455.0
456,-89523.70225422042,456.0
457,-89428.31791510976,457.0
458,-89486.89650321846,458.0
459,-89108.89629613938,459.0
460,-88985.35124080302,460.0
461,-88744.51249023188,461.0
462,-88605.174049035,462.0
463,-88500.4298684731,463.0
464,-88450.6873530948,464.0
465,-88325.63295077434,465.0
466,-87971.70211202331,466.0
467,-87841.39657952519,467.0
468,-87706.28788709117,468.0
469,-87726.84210885504,469.0
470,-87522.23053828765,470.0
471,-87485.42196846411,471.0
472,-87476.00584343227,472.0
473,-87339.9734000574,473.0
474,-87281.6092599919,474.0
475,-87223.72924146801,475.0
476,-87160.86294757326,476.0
477,-87077.92708685884,477.0
478,-87082.09296278447,478.0
479,-86968.22300918469,479.0
480,-86970.95504830165,480.0
481,-86944.73118325575,481.0
482,-86891.1597565842,482.0
483,-86842.63186894897,483.0
484,-86681.90450446856,484.0
485,-86728.77344260871,485.0
486,-86647.07881233556,486.0
487,-86682.73645583924,487.0
488,-86606.9105526127,488.0
489,-86510.29959902732,489.0
490,-86482.0341472897,490.0
491,-86419.83065144352,491.0
492,-86496.81194130075,492.0
493,-86366.18911368535,493.0
494,-86433.15433221975,494.0
495,-86249.34644486771,495.0
496,-86347.36814049586,496.0
497,-86279.92905839882,497.0
498,-86201.95761857988,498.0
499,-86297.84085002022,499.0
500,-86326.5177299602,500.0
501,-86311.96247099827,501.0
502,-86477.1605362354,502.0
503,-86675.47518130425,503.0
504,-87097.50342409314,504.0
505,-86956.64815269272,505.0
506,-86580.83939162134,506.0
507,-86182.47048298127,507.0
508,-86006.03417283224,508.0
509,-85888.54202235347,509.0
510,-85751.29324345589,510.0
511,-85509.64312242706,511.0
512,-85507.52476131979,512.0
513,-85384.27264637861,513.0
514,-85357.72481020245,514.0
515,-85425.56879134352,515.0
516,-85246.56190967103,516.0
517,-85295.6460643797,517.0
518,-85357.06438311374,518.0
519,-85266.00257122178,519.0
520,-85235.41328077718,520.0
521,-85148.11549284826,521.0
522,-85020.22689136611,522.0
523,-85035.96865453784,523.0
524,-84891.59549716474,524.0
525,-84890.31803424779,525.0
526,-84780.30148857058,526.0
527,-84751.73360291847,527.0
528,-84664.3755506824,528.0
529,-84703.40093605538,529.0
530,-84686.20861105139,530.0
531,-84693.21139870599,531.0
532,-84810.37881036552,532.0
533,-84763.16644591831,533.0
534,-84679.87548955205,534.0
535,-84587.03866686906,535.0
536,-84577.36466353411,536.0
537,-84461.71408125,537.0
538,-84475.82326003986,538.0
539,-84354.20657991202,539.0
540,-84173.328097181,540.0
541,-84021.9514110165,541.0
542,-84152.71369682996,542.0
543,-84135.54941686602,543.0
544,-84105.29498231507,544.0
545,-84168.43817798732,545.0
546,-84086.80652145986,546.0
547,-83899.85816473392,547.0
548,-83921.20311795377,548.0
549,-83908.95422842984,549.0
550,-84086.90689928684,550.0
551,-83988.06932626857,551.0
552,-83911.92499088717,552.0
553,-83929.14689526544,553.0
554,-83832.42060677957,554.0
555,-83838.0384118875,555.0
556,-83825.20536469705,556.0
557,-83852.9867496102,557.0
558,-83673.68592013889,558.0
559,-83494.59496392144,559.0
560,-83583.60868324086,560.0
561,-83518.55255028735,561.0
562,-83470.52535577888,562.0
563,-83455.75438865923,563.0
564,-83364.83296572909,564.0
565,-83217.82905960256,565.0
566,-83189.24815293297,566.0
567,-83208.27111003699,567.0
568,-83193.74315243936,568.0
569,-83041.71230522954,569.0
570,-83082.23335031969,570.0
571,-83118.13773400648,571.0
572,-83088.46964055375,572.0
573,-83156.03883210456,573.0
574,-83055.63193933823,574.0
575,-83155.40809375708,575.0
576,-83145.88233307183,576.0
577,-83023.60165476621,577.0
578,-82843.66053488797,578.0
579,-82907.61361530569,579.0
580,-82759.69683796127,580.0
581,-82740.58741795091,581.0
582,-82893.94680316091,582.0
583,-82856.28537081143,583.0
584,-82673.49101685725,584.0
585,-82554.44251714795,585.0
586,-82603.94236438679,586.0
587,-82596.38936684567,587.0
588,-82529.25710016522,588.0
589,-82657.41435353369,589.0
590,-82467.1716966861,590.0
591,-82528.4992298403,591.0
592,-82352.38766790296,592.0
593,-82311.47891994896,593.0
594,-82456.10560205532,594.0
595,-82491.7500770759,595.0
596,-82447.11713829752,596.0
597,-82240.28507576264,597.0
598,-82326.37612275449,598.0
599,-82375.90774596437,599.0
600,-82211.20692487064,600.0
601,-82387.92250753114,601.0
602,-82550.2686520134,602.0
603,-82692.04158286922,603.0
604,-82424.62381810306,604.0
605,-82353.49586617868,605.0
606,-82173.76501691244,606.0
607,-82155.09566541527,607.0
608,-82114.86219364629,608.0
609,-81987.99090952933,609.0
610,-81972.20055893551,610.0
611,-81889.62257702809,611.0
612,-81950.37795514292,612.0
613,-81935.89111475286,613.0
614,-81973.07566153465,614.0
615,-81938.59378881137,615.0
616,-81972.87305288462,616.0
617,-81721.61975151431,617.0
618,-81908.76606037152,618.0
619,-81647.73319575471,619.0
620,-81788.77908820516,620.0
621,-81626.73169384334,621.0
622,-81512.17902105386,622.0
623,-81577.51206653226,623.0
624,-81514.11435413899,624.0
625,-81578.44927964345,625.0
626,-81578.71458383318,626.0
627,-81578.88460132037,627.0
628,-81502.3956486102,628.0
629,-81502.47102432858,629.0
630,-81413.01140474276,630.0
631,-81571.42735307761,631.0
632,-81397.62674446334,632.0
633,-81490.00679198143,633.0
634,-81339.13104692046,634.0
635,-81556.05203728717,635.0
636,-81258.59689876426,636.0
637,-80981.71489974912,637.0
638,-81055.92036322092,638.0
639,-81326.4542785235,639.0
640,-81380.99605967286,640.0
641,-81543.79841230669,641.0
642,-81337.12867464391,642.0
643,-81102.3824731859,643.0
644,-81141.24536731522,644.0
645,-80917.49537255491,645.0
646,-80909.7785174467,646.0
647,-80712.09738847744,647.0
648,-80909.59062767094,648.0
649,-80828.65556725317,649.0
650,-80684.4125875042,650.0
651,-80722.02664880549,651.0
652,-80592.13990281358,652.0
653,-80896.52086816273,653.0
654,-80904.38533174818,654.0
655,-80663.50124768363,655.0
656,-80595.32177957178,656.0
657,-80550.06321169772,657.0
658,-80514.0407044205,658.0
659,-80564.2892291963,659.0
660,-80618.59297975352,660.0
661,-80490.32020768833,661.0
662,-80430.2177961325,662.0
663,-80235.35968604287,663.0
664,-80236.08700211321,664.0
665,-80467.07268572137,665.0
666,-80289.81531335822,666.0
667,-80290.42751454275,667.0
668,-80127.74622996653,668.0
669,-80149.00325384917,669.0
670,-80237.89816454992,670.0
671,-80335.72018921915,671.0
672,-80361.61614892271,672.0
673,-80355.74474875088,673.0
674,-80281.44030419957,674.0
675,-80201.26162922881,675.0
676,-80204.801416513,676.0
677,-80162.79878798281,677.0
678,-79866.60425052007,678.0
679,-79755.26694460801,679.0
680,-79989.53215533402,680.0
681,-80027.97500429848,681.0
682,-80117.53962131076,682.0
683,-80108.99587331318,683.0
684,-79912.40724773459,684.0
685,-80094.588214889,685.0
686,-80400.21971847115,686.0
687,-80331.78548813637,687.0
688,-80206.04787597657,688.0
689,-80194.25438323247,689.0
