,GravPotential_(km/s)^2,SphericalRadius_ckpc
0,-47341.38350011361,0.0
1,6009.580387343501,1.0
2,48492.350165453325,2.0
3,75153.99672919372,3.0
4,93280.89338918173,4.0
5,106535.0029215359,5.0
6,116920.22678712357,6.0
7,125499.18847224883,7.0
8,132664.22339522358,8.0
9,138871.76549123717,9.0
10,144280.2155686316,10.0
11,149047.1146694774,11.0
12,153288.22698889603,12.0
13,157134.94869155227,13.0
14,160615.7408989234,14.0
15,163781.2455469832,15.0
16,166711.28948927292,16.0
17,169407.7067903745,17.0
18,171919.62535918728,18.0
19,174272.76094154664,19.0
20,176466.90205990608,20.0
21,178519.56790493632,21.0
22,180468.1820660901,22.0
23,182313.13868372954,23.0
24,184060.15728877916,24.0
25,185727.6030491125,25.0
26,187292.1316225456,26.0
27,188807.3594180662,27.0
28,190256.08939547956,28.0
29,191630.50796291896,29.0
30,192960.0797180879,30.0
31,194229.16989700773,31.0
32,195451.00003125914,32.0
33,196622.08330620133,33.0
34,197758.24122379327,34.0
35,198850.57785587243,35.0
36,199908.27901785713,36.0
37,200934.38319832223,37.0
38,201923.8808418046,38.0
39,202877.0736181817,39.0
40,203811.61930433722,40.0
41,204706.22020364343,41.0
42,205589.0087826412,42.0
43,206438.21620458664,43.0
44,207253.6689313989,44.0
45,208055.6414375247,45.0
46,208833.56428290103,46.0
47,209586.36858903198,47.0
48,210319.96070385262,48.0
49,211039.76061301917,49.0
50,211731.84794844067,50.0
51,212415.49950021043,51.0
52,213071.6471118474,52.0
53,213721.7726633394,53.0
54,214349.88407074267,54.0
55,214972.7107381485,55.0
56,215565.08527434868,56.0
57,216147.48316116803,57.0
58,216704.08970869347,58.0
59,217278.68989788645,59.0
60,217829.8778713644,60.0
61,218387.89249168587,61.0
62,218924.09844297738,62.0
63,219444.83983831998,63.0
64,219943.77139400176,64.0
65,220447.9799185399,65.0
66,220930.98182299692,66.0
67,221401.40011851522,67.0
68,221878.26275334158,68.0
69,222335.44576908587,69.0
70,222784.8128491037,70.0
71,223224.06214935236,71.0
72,223655.98955598363,72.0
73,224076.30939559228,73.0
74,224486.55816429236,74.0
75,224896.33110356893,75.0
76,225300.18664291676,76.0
77,225694.3628502266,77.0
78,226075.9374501982,78.0
79,226454.38340769574,79.0
80,226826.4230062623,80.0
81,227189.09067143995,81.0
82,227536.7185232966,82.0
83,227892.40318155513,83.0
84,228253.27292922005,84.0
85,228589.3278767548,85.0
86,228931.19565000647,86.0
87,229252.4370002059,87.0
88,229583.65105077613,88.0
89,229893.87253043277,89.0
90,230208.03289636062,90.0
91,230504.57715328224,91.0
92,230803.2713478513,92.0
93,231088.18013734813,93.0
94,231379.0896687189,94.0
95,231681.0300778384,95.0
96,231970.37096723032,96.0
97,232239.79286613525,97.0
98,232517.19673046912,98.0
99,232789.92671450926,99.0
100,233057.01029839885,100.0
101,233334.37982284647,101.0
102,233590.4329637592,102.0
103,233842.13802965076,103.0
104,234104.84727262764,104.0
105,234340.5177335158,105.0
106,234601.3599193327,106.0
107,234846.51255206738,107.0
108,235080.5583473305,108.0
109,235320.1768613949,109.0
110,235550.10552398674,110.0
111,235781.3342122835,111.0
112,236005.6988149293,112.0
113,236227.5626980931,113.0
114,236457.33766724213,114.0
115,236671.38736356757,115.0
116,236887.7575411798,116.0
117,237108.66398956714,117.0
118,237319.99331922948,118.0
119,237527.47863510033,119.0
120,237727.25884430678,120.0
121,237920.98571272055,121.0
122,238120.9077212939,122.0
123,238314.24901243093,123.0
124,238489.4305288197,124.0
125,238706.84924412094,125.0
126,238890.63210455092,126.0
127,239094.82487339855,127.0
128,239268.53362346237,128.0
129,239450.21293218085,129.0
130,239637.12000750317,130.0
131,239820.320457588,131.0
132,239995.37342248467,132.0
133,240185.32863646842,133.0
134,240351.87386248555,134.0
135,240522.88430467184,135.0
136,240695.631996675,136.0
137,240858.08842499417,137.0
138,241028.10153172075,138.0
139,241186.32363180516,139.0
140,241350.97663363192,140.0
141,241495.29799254966,141.0
142,241650.322783374,142.0
143,241805.4904651039,143.0
144,241952.0000732794,144.0
145,242083.08618647078,145.0
146,242215.0368163135,146.0
147,242351.4411008079,147.0
148,242526.73147783361,148.0
149,242706.79036584444,149.0
150,242863.27512894804,150.0
151,243036.051806616,151.0
152,243178.6412498428,152.0
153,243346.61457939507,153.0
154,243493.32918832704,154.0
155,243640.52315105475,155.0
156,243787.4853064904,156.0
157,243924.22318935356,157.0
158,244052.4827254747,158.0
159,244211.6401903014,159.0
160,244344.1213694376,160.0
161,244483.314980604,161.0
162,244615.55502007392,162.0
163,244731.40942382812,163.0
164,244868.90421719087,164.0
165,245023.8841132284,165.0
166,245146.47135555185,166.0
167,245278.24639100456,167.0
168,245400.01716195623,168.0
169,245534.2944425327,169.0
170,245670.74204104856,170.0
171,245809.86399626892,171.0
172,245933.0978953174,172.0
173,246033.59315520088,173.0
174,246159.28369936053,174.0
175,246298.0041874182,175.0
176,246403.1181674261,176.0
177,246524.11923475482,177.0
178,246657.5064683195,178.0
179,246771.39429298404,179.0
180,246875.38278487057,180.0
181,246980.14194749217,181.0
182,247093.0164566715,182.0
183,247203.23858332718,183.0
184,247305.3266351638,184.0
185,247434.00754661477,185.0
186,247530.79614783567,186.0
187,247637.04534115922,187.0
188,247734.43434564667,188.0
189,247837.6616773897,189.0
190,247945.2480941786,190.0
191,248044.24060884523,191.0
192,248146.25200278568,192.0
193,248248.24185299492,193.0
194,248329.68042985353,194.0
195,248444.9986176212,195.0
196,248511.04300920598,196.0
197,248592.91861458484,197.0
198,248708.2112114599,198.0
199,248800.23376979807,199.0
200,248910.842674547,200.0
201,248976.61048916835,201.0
202,249065.33041549087,202.0
203,249171.60383157613,203.0
204,249256.80691261706,204.0
205,249344.02018072855,205.0
206,249424.03229055292,206.0
207,249529.42058779314,207.0
208,249620.1637556574,208.0
209,249695.60959327166,209.0
210,249788.97781956295,210.0
211,249885.22808814197,211.0
212,249946.85622393858,212.0
213,250028.44236992154,213.0
214,250104.16648395977,214.0
215,250195.90220566484,215.0
216,250282.85054217646,216.0
217,250344.05685362543,217.0
218,250405.08210409383,218.0
219,250466.32177294992,219.0
220,250544.17904340895,220.0
221,250615.39757283375,221.0
222,250683.8613243762,222.0
223,250749.289490003,223.0
224,250820.34801115378,224.0
225,250884.34995483162,225.0
226,250960.34314224645,226.0
227,250999.3901074347,227.0
228,251038.84270407044,228.0
229,251078.46593763266,229.0
230,251122.49350036852,230.0
231,251167.74025764316,231.0
232,251134.5087159711,232.0
233,251222.58321982026,233.0
234,251209.2188752461,234.0
235,251236.1634034319,235.0
236,251200.87915291576,236.0
237,251158.14967693837,237.0
238,251094.41150013157,238.0
239,251028.62672290107,239.0
240,250898.37572030837,240.0
241,250753.9558882943,241.0
242,250792.5708273639,242.0
243,250971.9837345847,243.0
244,251011.43074024824,244.0
245,250938.1480223616,245.0
246,250878.2093764779,246.0
247,250760.64980858314,247.0
248,250513.2716531692,248.0
249,250176.0694847449,249.0
250,249458.86369185883,250.0
251,248443.64550925195,251.0
252,246525.52520199397,252.0
253,245980.03616367155,253.0
254,247908.30400434948,254.0
255,249263.39525613023,255.0
256,250077.63407088927,256.0
257,250745.36515279728,257.0
258,251216.29088752612,258.0
259,251684.48465220028,259.0
260,251940.96695319272,260.0
261,252225.2089308211,261.0
262,252447.99553100014,262.0
263,252671.6146075807,263.0
264,252902.49922250427,264.0
265,253077.9081316258,265.0
266,253199.84432252301,266.0
267,253390.01256374404,267.0
268,253491.2896013829,268.0
269,253635.41193327904,269.0
270,253752.88168922934,270.0
271,253869.83694290012,271.0
272,253940.2562310821,272.0
273,254075.72889458956,273.0
274,254180.91456778607,274.0
275,254283.84687974202,275.0
276,254363.09698057434,276.0
277,254442.12059397076,277.0
278,254543.25480720768,278.0
279,254597.75999430832,279.0
280,254690.52496932933,280.0
281,254745.6775387309,281.0
282,254799.31003094726,282.0
283,254913.98219357658,283.0
284,254977.41704708943,284.0
285,255089.41303233887,285.0
286,255147.1460005574,286.0
287,255188.621791771,287.0
288,255243.9419735627,288.0
289,255315.45615624296,289.0
290,255382.63873565756,290.0
291,255439.72171026128,291.0
292,255526.39915907755,292.0
293,255605.0029756544,293.0
294,255681.03703798619,294.0
295,255711.3515050023,295.0
296,255773.14365749582,296.0
297,255842.94293271482,297.0
298,255935.11062088516,298.0
299,256010.2529432022,299.0
300,256056.5025097753,300.0
301,256107.1108969672,301.0
302,256189.46094714268,302.0
303,256252.3531983855,303.0
304,256279.59359375,304.0
305,256338.91712109375,305.0
306,256394.52177361937,306.0
307,256452.7576977533,307.0
308,256496.9779040404,308.0
309,256590.30983646374,309.0
310,256611.4777591219,310.0
311,256689.3088268933,311.0
312,256759.731880109,312.0
313,256816.9574064026,313.0
314,256853.21951104156,314.0
315,256923.11711501968,315.0
316,256978.82285233017,316.0
317,257039.32788705584,317.0
318,257106.18635490543,318.0
319,257169.45862507107,319.0
320,257205.1608447659,320.0
321,257248.18229646698,321.0
322,257263.33355170526,322.0
323,257312.54455840512,323.0
324,257385.97479395603,324.0
325,257447.1184668124,325.0
326,257502.7858917364,326.0
327,257529.4597409476,327.0
328,257556.78019561069,328.0
329,257634.88564349237,329.0
330,257705.88877911813,330.0
331,257759.3864082532,331.0
332,257801.04435564336,332.0
333,257821.7637799256,333.0
334,257846.48591188525,334.0
335,257896.98551350503,335.0
336,257971.95066768484,336.0
337,258028.65476683222,337.0
338,258042.6462973485,338.0
339,258091.0867445859,339.0
340,258123.49524164037,340.0
341,258106.90281555091,341.0
342,258174.14831023148,342.0
343,258160.23545181585,343.0
344,258128.84914377608,344.0
345,258075.38306789254,345.0
346,257990.40490672542,346.0
347,258125.0582490508,347.0
348,258333.75580200754,348.0
349,258424.01550374168,349.0
350,258537.05780398758,350.0
351,258600.20127566427,351.0
352,258681.3426720664,352.0
353,258756.44989632702,353.0
354,258776.80286036222,354.0
355,258858.85548367834,355.0
356,258892.6245474618,356.0
357,258951.89321737547,357.0
358,258999.68589823082,358.0
359,259043.34991493114,359.0
360,259102.78152325118,360.0
361,259101.14734579696,361.0
362,259144.1830378089,362.0
363,259202.11949767478,363.0
364,259279.58825790006,364.0
365,259325.09390263757,365.0
366,259377.01262290459,366.0
367,259433.4895567602,367.0
368,259481.5657414351,368.0
369,259524.1625533468,369.0
370,259556.97383146157,370.0
371,259589.33136894464,371.0
372,259648.9700504537,372.0
373,259673.35859185146,373.0
374,259725.51658996436,374.0
375,259779.14751197735,375.0
376,259800.73488884897,376.0
377,259854.9058039962,377.0
378,259882.30122676434,378.0
379,259920.27634106978,379.0
380,259951.22630088325,380.0
381,260005.15646681315,381.0
382,260057.4894055121,382.0
383,260063.4331857447,383.0
384,260120.95394710777,384.0
385,260111.83221101522,385.0
386,260146.51180725658,386.0
387,260194.6315173275,387.0
388,260231.33600077883,388.0
389,260269.85174944898,389.0
390,260308.85216307975,390.0
391,260349.34733574349,391.0
392,260393.70713256483,392.0
393,260415.11930158988,393.0
394,260460.7167650498,394.0
395,260459.76928703563,395.0
396,260454.40051341933,396.0
397,260531.7339,397.0
398,260586.42377064258,398.0
399,260614.2885679731,399.0
400,260604.97272390153,400.0
401,260699.34905660377,401.0
402,260735.08000765476,402.0
403,260729.607335209,403.0
404,260800.64081053433,404.0
405,260840.3017870205,405.0
406,260834.55049790148,406.0
407,260908.53856721887,407.0
408,260910.57849329998,408.0
409,260936.59641990293,409.0
410,260950.39711863725,410.0
411,261000.24144947706,411.0
412,261032.64608787594,412.0
413,261052.3366877938,413.0
414,261098.1895755676,414.0
415,261142.97122234327,415.0
416,261185.01807769795,416.0
417,261203.3703034988,417.0
418,261202.8210344472,418.0
419,261232.40572209342,419.0
420,261250.78247809628,420.0
421,261316.76322115384,421.0
422,261351.06833389093,422.0
423,261362.7172321736,423.0
424,261359.71315593005,424.0
425,261365.93390151515,425.0
426,261374.78219524794,426.0
427,261451.66323970282,427.0
428,261484.318819735,428.0
429,261520.3623675073,429.0
430,261557.37709816275,430.0
431,261600.16546116504,431.0
432,261653.99852352595,432.0
433,261709.14312746548,433.0
434,261758.41870107866,434.0
435,261747.37288599284,435.0
436,261796.2494306195,436.0
437,261814.2305047674,437.0
438,261827.79765559404,438.0
439,261836.15521056866,439.0
440,261844.1112105068,440.0
441,261845.31187396738,441.0
442,261897.48365684962,442.0
443,261966.50240163368,443.0
444,262027.84923946497,444.0
445,262016.97316316795,445.0
446,262070.6756764706,446.0
447,262086.63926943933,447.0
448,262119.57590039817,448.0
449,262143.01836609337,449.0
450,262204.8973765432,450.0
451,262239.1913006757,451.0
452,262242.0127757801,452.0
453,262238.25061023387,453.0
454,262134.4618143037,454.0
455,262176.37760017865,455.0
456,262307.41198161955,456.0
457,262304.38252840907,457.0
458,262314.56770547,458.0
459,262336.1614801255,459.0
460,262408.6002827892,460.0
461,262447.07758522726,461.0
462,262491.26731874293,462.0
463,262530.23922130547,463.0
464,262480.62705357146,464.0
465,262495.7506590006,465.0
466,262495.1466573079,466.0
467,262611.684566005,467.0
468,262547.5049545159,468.0
469,262628.32121799194,469.0
470,262685.47772678186,470.0
471,262727.1548862483,471.0
472,262731.5118428837,472.0
473,262671.557020517,473.0
474,262727.3163867048,474.0
475,262705.0323932927,475.0
476,262767.62480332167,476.0
477,262824.983116536,477.0
478,262782.35250636825,478.0
479,262840.6924212598,479.0
480,262845.9119828345,480.0
481,262827.8761920103,481.0
482,262895.4241961051,482.0
483,262912.23588972783,483.0
484,262953.2632943303,484.0
485,262995.17213541665,485.0
486,262989.2406424442,486.0
487,262976.437894688,487.0
488,262986.946867849,488.0
489,262954.7524981495,489.0
490,262992.77368532855,490.0
491,263003.14365421457,491.0
492,263086.0336635157,492.0
493,263146.36627485504,493.0
494,263160.86224287975,494.0
495,263229.89006226056,495.0
496,263189.3728100394,496.0
497,263182.8215721702,497.0
498,263228.47872846556,498.0
499,263322.5175480769,499.0
500,263340.6617371824,500.0
501,263414.8350603786,501.0
502,263295.92191593884,502.0
503,263465.98677130044,503.0
504,263384.56995647034,504.0
505,263420.4873344928,505.0
506,263459.31167687156,506.0
507,263551.4952758216,507.0
508,263516.18094618054,508.0
509,263560.131068707,509.0
510,263617.9957347197,510.0
511,263673.6967503834,511.0
512,263653.4358527861,512.0
513,263672.8275168413,513.0
514,263748.5108292079,514.0
515,263697.14289772726,515.0
516,263721.37254157866,516.0
517,263830.7010635755,517.0
518,263731.054734375,518.0
519,263821.3345845846,519.0
520,263888.336984856,520.0
521,263894.724334969,521.0
522,263844.2599812433,522.0
523,263878.51918149943,523.0
524,263916.8503066284,524.0
525,263966.2039920921,525.0
526,263954.1811873681,526.0
527,263949.0165868176,527.0
528,263960.5438917458,528.0
529,263983.75091422873,529.0
530,264070.44273247395,530.0
531,264036.11377792095,531.0
532,264117.5985550709,532.0
533,264103.770641542,533.0
534,264199.2127376152,534.0
535,264107.3487363388,535.0
536,264280.37251768226,536.0
537,264232.269375,537.0
538,264268.571491009,538.0
539,264271.2868504772,539.0
540,264307.5436927918,540.0
541,264333.8521648873,541.0
542,264311.178859447,542.0
543,264325.14591763006,543.0
544,264319.53796164773,544.0
545,264331.87593335175,545.0
546,264305.1413166856,546.0
547,264236.01079604577,547.0
548,264217.1192061144,548.0
549,264238.7716893564,549.0
550,264171.0067312378,550.0
551,264096.69659043005,551.0
552,264128.6816027337,552.0
553,264241.368648374,553.0
554,264373.5008045829,554.0
555,264426.53971727897,555.0
556,264362.04056894616,556.0
557,264466.80023923446,557.0
558,264459.9969273743,558.0
559,264502.8612645349,559.0
560,264565.9147103659,560.0
561,264559.3380239521,561.0
562,264600.28867980884,562.0
563,264612.1162202381,563.0
564,264598.6134756787,564.0
565,264495.07851796405,565.0
566,264587.17252094974,566.0
567,264504.87723214284,567.0
568,264439.93608097883,568.0
569,264580.3348503236,569.0
570,264684.7392642232,570.0
571,264690.0429730473,571.0
572,264716.6617089435,572.0
573,264818.5057404224,573.0
574,264762.06464787025,574.0
575,264878.9338080169,575.0
576,264906.9031834112,576.0
577,264925.7023216581,577.0
578,264931.7554435484,578.0
579,264965.54820609436,579.0
580,265046.99279131985,580.0
581,264979.86219512194,581.0
582,265012.17064907274,582.0
583,265016.5421719527,583.0
584,264989.0830285904,584.0
585,265055.8648670558,585.0
586,265068.4697202458,586.0
587,265126.6721105528,587.0
588,265198.64343152865,588.0
589,265190.504938579,589.0
590,265247.2288032946,590.0
591,265125.632183908,591.0
592,265322.2231124161,592.0
593,265258.0149703212,593.0
594,265270.331372549,594.0
595,265200.9549101412,595.0
596,265121.17181558936,596.0
597,265224.00185032893,597.0
598,265269.4016297043,598.0
599,265289.69595478324,599.0
600,265315.71827190544,600.0
601,265302.2120150862,601.0
602,265320.6211993243,602.0
603,265307.5078346317,603.0
604,265433.7529101003,604.0
605,265342.25077160494,605.0
606,265403.0346706081,606.0
607,265523.72785399726,607.0
608,265369.5477314815,608.0
609,265394.6343534483,609.0
610,265472.6252554496,610.0
611,265466.17082294263,611.0
612,265424.4525361181,612.0
613,265457.3232847468,613.0
614,265375.3655598958,614.0
615,265329.87462529977,615.0
616,265216.0293307744,616.0
617,264969.752899137,617.0
618,265079.5491226798,618.0
619,265261.98325320514,619.0
620,265431.7583771353,620.0
621,265550.32542686857,621.0
622,265663.6076341712,622.0
623,265626.6654027197,623.0
624,265582.6836933428,624.0
625,265694.4893707483,625.0
626,265675.05362266855,626.0
627,265728.3594342604,627.0
628,265710.2906040269,628.0
629,265554.2098655748,629.0
630,265729.1448787062,630.0
631,265796.08161813923,631.0
632,265729.84992732556,632.0
633,265827.0252630624,633.0
634,265901.54248544393,634.0
635,265714.03571428574,635.0
636,265859.6778033088,636.0
637,265855.76679040055,637.0
638,265800.4776019313,638.0
639,265903.1293355082,639.0
640,265966.6071611035,640.0
641,265992.38408753707,641.0
642,266038.51363031915,642.0
643,266046.6444354257,643.0
644,266081.86817191687,644.0
645,266174.9913793103,645.0
646,266203.35732119845,646.0
647,266276.2841226708,647.0
648,266183.01354578394,648.0
649,266140.0742137356,649.0
650,266157.6203313253,650.0
651,266162.5223835653,651.0
652,266207.4668594306,652.0
653,266428.67481435643,653.0
654,266380.5987363388,654.0
655,266274.21324750833,655.0
656,266436.05950657895,656.0
657,266342.76443561004,657.0
658,266337.75862487854,658.0
659,266401.84390547266,659.0
660,266282.0853226967,660.0
661,266338.34003178927,661.0
662,266331.8791920732,662.0
663,266232.1697937376,663.0
664,266122.4484970028,664.0
665,265955.04083914496,665.0
666,265641.49395431404,666.0
667,265705.4479166667,667.0
668,265984.4439564443,668.0
669,266212.1069018964,669.0
670,266418.19862943114,670.0
671,266404.7186103664,671.0
672,266575.1259940358,672.0
673,266507.21234582545,673.0
674,266566.4317920918,674.0
675,266621.2475052521,675.0
676,266575.08669786097,676.0
677,266706.08489583334,677.0
678,266633.8518569845,678.0
679,266630.96387081785,679.0
680,266664.390569788,680.0
681,266659.52874228393,681.0
682,266640.5716801559,682.0
683,266743.532396088,683.0
684,266735.823113952,684.0
685,266725.7819796954,685.0
686,266753.87299107143,686.0
687,266803.5621163834,687.0
688,266738.68573427503,688.0
689,266791.52095170453,689.0
690,266798.5558009423,690.0
691,266781.57590270124,691.0
692,266701.0255151099,692.0
693,266624.5037985589,693.0
694,266676.5863076683,694.0
695,266750.0927623262,695.0
696,266839.9629340278,696.0
697,266756.99227255053,697.0
698,266805.07389099034,698.0
699,266752.891796875,699.0
700,266736.32758775074,700.0
701,266787.2033051153,701.0
702,266891.3453776042,702.0
703,266848.3153328612,703.0
704,266878.24889605975,704.0
705,266852.65543713875,705.0
706,266894.04282591416,706.0
