,GravPotential_(km/s)^2,SphericalRadius_ckpc
0,-106347.42132362696,0.0
1,-71337.11033391744,1.0
2,-38965.586335360305,2.0
3,-15877.555979691118,3.0
4,1550.457140106455,4.0
5,15573.154148250982,5.0
6,27497.639830017844,6.0
7,37715.91643485293,7.0
8,46581.19329594663,8.0
9,54405.0493140881,9.0
10,61250.74105162898,10.0
11,67477.6980038619,11.0
12,73114.9406465334,12.0
13,78198.65340569212,13.0
14,83016.87853571305,14.0
15,87364.63367310177,15.0
16,91452.13793439817,16.0
17,95238.80934858025,17.0
18,98816.27222094678,18.0
19,102179.81096865091,19.0
20,105347.70799000263,20.0
21,108325.98558613811,21.0
22,111121.97414151997,22.0
23,113832.69027819979,23.0
24,116376.53617347714,24.0
25,118851.59212388752,25.0
26,121147.77864907272,26.0
27,123405.51256054352,27.0
28,125541.68744939392,28.0
29,127595.43205660155,29.0
30,129601.77776358995,30.0
31,131473.1756006986,31.0
32,133319.02459292268,32.0
33,135036.51401643275,33.0
34,136740.70339175744,34.0
35,138365.82802276305,35.0
36,139923.2526606618,36.0
37,141421.51779521143,37.0
38,142857.91064195952,38.0
39,144280.31400289218,39.0
40,145632.0987329543,40.0
41,146933.26996292715,41.0
42,148208.32525011562,42.0
43,149440.82792565227,43.0
44,150618.72537149375,44.0
45,151769.62807374747,45.0
46,152897.01033648453,46.0
47,153981.95882197676,47.0
48,155029.70563177584,48.0
49,156063.32791921985,49.0
50,157072.39487952687,50.0
51,158046.00424220812,51.0
52,159023.68190781728,52.0
53,159934.69652971163,53.0
54,160836.34491096536,54.0
55,161727.1168706041,55.0
56,162592.99545401675,56.0
57,163452.8940196096,57.0
58,164273.340837819,58.0
59,165099.50609190352,59.0
60,165871.82669239942,60.0
61,166667.25226721494,61.0
62,167415.09757046585,62.0
63,168150.06048558897,63.0
64,168873.7488834245,64.0
65,169594.26968929733,65.0
66,170297.16064065267,66.0
67,170981.43455322215,67.0
68,171640.29778307577,68.0
69,172302.96621823835,69.0
70,172941.77813754106,70.0
71,173568.79118546643,71.0
72,174184.4530549992,72.0
73,174773.54581850828,73.0
74,175341.56811876435,74.0
75,175837.2689630426,75.0
76,176385.83624229315,76.0
77,177016.1698291967,77.0
78,177630.19494885704,78.0
79,178186.1003113787,79.0
80,178694.72638485435,80.0
81,179183.3747313333,81.0
82,179679.46108174406,82.0
83,180219.4965579785,83.0
84,180757.63406102435,84.0
85,181279.93998579544,85.0
86,181773.23306640514,86.0
87,182256.4170171577,87.0
88,182729.32515932468,88.0
89,183197.5741310809,89.0
90,183672.5499887843,90.0
91,184102.74296961157,91.0
92,184566.12288856506,92.0
93,184985.26654023543,93.0
94,185422.32070676092,94.0
95,185856.67565859237,95.0
96,186269.4154034627,96.0
97,186678.94851506807,97.0
98,187072.4879292836,98.0
99,187468.48957222397,99.0
100,187812.92728917283,100.0
101,188180.80506391154,101.0
102,188599.6818614305,102.0
103,188984.98502317216,103.0
104,189383.2892230731,104.0
105,189750.00169014672,105.0
106,190138.63359742367,106.0
107,190497.990512086,107.0
108,190846.62358563204,108.0
109,191187.84548388864,109.0
110,191541.15945063398,110.0
111,191874.5181795162,111.0
112,192207.1507075108,112.0
113,192539.12506024097,113.0
114,192860.79632434866,114.0
115,193212.53498507268,115.0
116,193514.41164566053,116.0
117,193827.39825012238,117.0
118,194142.01803313414,118.0
119,194461.58190084537,119.0
120,194765.30591050422,120.0
121,195054.51765785873,121.0
122,195381.07595970813,122.0
123,195647.0120945897,123.0
124,195956.517688426,124.0
125,196234.64772346022,125.0
126,196496.54062544784,126.0
127,196795.1516666213,127.0
128,197089.58840149,128.0
129,197356.45892762387,129.0
130,197593.43973086553,130.0
131,197833.29682574864,131.0
132,198075.96885747876,132.0
133,198374.6032902802,133.0
134,198678.32569309775,134.0
135,198948.93113983847,135.0
136,199206.87034858068,136.0
137,199475.6092848024,137.0
138,199726.81630785004,138.0
139,199975.85041242494,139.0
140,200229.1633518566,140.0
141,200475.27733337024,141.0
142,200731.89988093264,142.0
143,200957.54799323017,143.0
144,201179.47183741207,144.0
145,201441.17478619283,145.0
146,201657.91079560644,146.0
147,201901.5225294017,147.0
148,202137.0132354081,148.0
149,202349.22191349303,149.0
150,202572.60345931706,150.0
151,202792.42318239296,151.0
152,203012.30121816302,152.0
153,203248.48917368913,153.0
154,203438.5109809408,154.0
155,203668.15594535472,155.0
156,203882.12332857423,156.0
157,204076.04351392915,157.0
158,204282.72937480296,158.0
159,204483.14580277866,159.0
160,204695.82276477074,160.0
161,204889.78089417197,161.0
162,205090.06468265524,162.0
163,205270.55001671528,163.0
164,205458.21559017122,164.0
165,205664.89270361877,165.0
166,205863.68448950342,166.0
167,206064.21681685338,167.0
168,206243.32876641414,168.0
169,206433.1488937602,169.0
170,206634.32160917256,170.0
171,206794.2732497971,171.0
172,206950.5154590753,172.0
173,207142.5475921631,173.0
174,207330.46470945832,174.0
175,207492.25242275855,175.0
176,207704.59056894033,176.0
177,207828.79169732425,177.0
178,208005.5277054398,178.0
179,208175.84804841288,179.0
180,208343.37361827656,180.0
181,208486.53630656676,181.0
182,208615.11278965612,182.0
183,208728.82329188785,183.0
184,208813.66158764428,184.0
185,208866.63037000535,185.0
186,208873.44910615572,186.0
187,208654.43423187753,187.0
188,208995.62502091864,188.0
189,209419.90932708862,189.0
190,209755.2360773089,190.0
191,210025.66837324717,191.0
192,210254.93124595904,192.0
193,210444.35793682386,193.0
194,210637.1342362538,194.0
195,210827.55963619912,195.0
196,211000.4691177649,196.0
197,211174.33081086987,197.0
198,211360.16259311262,198.0
199,211528.25375983547,199.0
200,211678.32819961506,200.0
201,211822.20369238826,201.0
202,212011.28126843658,202.0
203,212160.50023899402,203.0
204,212292.15631072677,204.0
205,212459.75726553844,205.0
206,212613.97306767936,206.0
207,212766.66881472451,207.0
208,212922.9377217863,208.0
209,213037.63123116124,209.0
210,213170.03134240847,210.0
211,213306.9637267183,211.0
212,213401.9202016129,212.0
213,213504.74556784378,213.0
214,213674.9118467635,214.0
215,213831.2061019358,215.0
216,213987.79397301434,216.0
217,214134.20174170646,217.0
218,214260.7949768898,218.0
219,214402.57296116443,219.0
220,214557.98757650174,220.0
221,214703.78345016763,221.0
222,214836.92425371715,222.0
223,214944.30920595297,223.0
224,215103.35057014268,224.0
225,215247.92039835165,225.0
226,215377.51221995926,226.0
227,215479.41290054616,227.0
228,215634.1794506547,228.0
229,215764.70004384522,229.0
230,215882.884548134,230.0
231,215998.690732051,231.0
232,216118.73706996985,232.0
233,216241.50786585367,233.0
234,216354.8400241452,234.0
235,216441.99004886352,235.0
236,216571.65299231844,236.0
237,216685.59452868387,237.0
238,216783.0924708929,238.0
239,216901.89458402546,239.0
240,216998.71000068757,240.0
241,217071.140901318,241.0
242,217228.49650747815,242.0
243,217341.82520397304,243.0
244,217447.69042612633,244.0
245,217547.47925064125,245.0
246,217668.70004626564,246.0
247,217775.72096538462,247.0
248,217849.11923545573,248.0
249,217969.6018647354,249.0
250,218063.7776178298,250.0
251,218193.64578289882,251.0
252,218305.8812512432,252.0
253,218417.4491044589,253.0
254,218511.32086677887,254.0
255,218657.7922320721,255.0
256,218730.69912898756,256.0
257,218819.48951175783,257.0
258,218932.84477870332,258.0
259,219038.09148477498,259.0
260,219121.4131463266,260.0
261,219227.66890037528,261.0
262,219281.9445603583,262.0
263,219379.7884981146,263.0
264,219470.3716233331,264.0
265,219521.38446538232,265.0
266,219633.80018552794,266.0
267,219670.74371494047,267.0
268,219802.5579460563,268.0
269,219926.90333900467,269.0
270,220030.69460041134,270.0
271,220130.03096143523,271.0
272,220257.62472885032,272.0
273,220394.3162519276,273.0
274,220551.28637784297,274.0
275,220616.61330863304,275.0
276,220690.1429453535,276.0
277,220801.99906338498,277.0
278,220905.6492797757,278.0
279,220989.14868085957,279.0
280,221076.8737678013,280.0
281,221172.38059071513,281.0
282,221257.09398917158,282.0
283,221383.11262459008,283.0
284,221427.63682805214,284.0
285,221487.67305690123,285.0
286,221625.66179376768,286.0
287,221739.7808117185,287.0
288,221778.93199198256,288.0
289,221886.7493215668,289.0
290,222031.71520300087,290.0
291,222096.63731904823,291.0
292,222176.20765306122,292.0
293,222279.49474587297,293.0
294,222361.80447839948,294.0
295,222476.34162275784,295.0
296,222559.5392795922,296.0
297,222620.53226374768,297.0
298,222761.84504587157,298.0
299,222830.8714041331,299.0
300,222867.74618717303,300.0
301,223016.94636593692,301.0
302,223097.43395220934,302.0
303,223137.3846429939,303.0
304,223254.0942917535,304.0
305,223342.17575616264,305.0
306,223464.33198482855,306.0
307,223539.61863007332,307.0
308,223640.11284279337,308.0
309,223744.25864247567,309.0
310,223824.7407334946,310.0
311,223936.602897351,311.0
312,224008.61071028386,312.0
313,223934.74687377881,313.0
314,224033.89866280204,314.0
315,224135.86049962198,315.0
316,224212.1052424514,316.0
317,224326.8101160808,317.0
318,224418.1304037744,318.0
319,224425.91972812897,319.0
320,224593.86901915405,320.0
321,224613.47975489686,321.0
322,224656.45862322202,322.0
323,224775.0313905547,323.0
324,224858.68607118458,324.0
325,224858.8211580504,325.0
326,225017.47257782464,326.0
327,225103.19942887017,327.0
328,225211.889373236,328.0
329,225233.02329699916,329.0
330,225296.74548408523,330.0
331,225393.56679796544,331.0
332,225484.44073183762,332.0
333,225596.73717749352,333.0
334,225685.4510313775,334.0
335,225790.18023887434,335.0
336,225845.92743219025,336.0
337,225919.88559060596,337.0
338,226026.9106606307,338.0
339,226039.43909069392,339.0
340,226072.47626927847,340.0
341,226079.2869249633,341.0
342,225973.67484848484,342.0
343,226148.2841378519,343.0
344,226291.61565604096,344.0
345,226373.7222109221,345.0
346,226384.67562358422,346.0
347,226440.52816932625,347.0
348,226518.43724108863,348.0
349,226609.95450565734,349.0
350,226682.6717775531,350.0
351,226763.72189271403,351.0
352,226739.3584557068,352.0
353,226757.4019304316,353.0
354,226870.1219886868,354.0
355,226926.28983113499,355.0
356,226985.32922654215,356.0
357,227171.97826620174,357.0
358,227273.98072624946,358.0
359,227380.05147408298,359.0
360,227391.07498189455,360.0
361,227452.85094989298,361.0
362,227491.62880742343,362.0
363,227595.25763713926,363.0
364,227602.0461863048,364.0
365,227741.72362742748,365.0
366,227815.38451594912,366.0
367,227933.2092486053,367.0
368,228003.56530987975,368.0
369,228001.35155524604,369.0
370,228021.16973531575,370.0
371,228155.54499110972,371.0
372,228152.03224757366,372.0
373,228141.351599491,373.0
374,228208.77236430222,374.0
375,228206.07004204518,375.0
376,228206.10031886192,376.0
377,228241.08004163593,377.0
378,228234.76041167666,378.0
379,228328.61511795167,379.0
380,228309.68179079643,380.0
381,228303.8743348841,381.0
382,228251.45968603162,382.0
383,228165.06041534306,383.0
384,227940.01970939574,384.0
385,227635.08358762256,385.0
386,227152.6070905764,386.0
387,226807.16794972165,387.0
388,227656.3612398814,388.0
389,228135.89644632456,389.0
390,228511.2769652062,390.0
391,228615.44950257245,391.0
392,228796.79921304746,392.0
393,228911.9454403409,393.0
394,229050.76753331878,394.0
395,229099.67169031556,395.0
396,229216.08769713785,396.0
397,229255.6279917026,397.0
398,229416.24872750946,398.0
399,229481.06740614335,399.0
400,229570.65167949878,400.0
401,229649.99279425762,401.0
402,229737.16459481462,402.0
403,229718.9520261438,403.0
404,229736.30315038716,404.0
405,229851.22236044475,405.0
406,229864.27601665191,406.0
407,229925.3782830902,407.0
408,229897.3576023635,408.0
409,229943.31681791568,409.0
410,230011.01970768775,410.0
411,230062.92291172987,411.0
412,230129.99031586197,412.0
413,230155.0915727459,413.0
414,230325.09123619873,414.0
415,230297.3525980425,415.0
416,230407.04557930987,416.0
417,230462.6040739617,417.0
418,230466.52094480427,418.0
419,230576.5904084075,419.0
420,230649.7348456593,420.0
421,230643.74558103376,421.0
422,230782.1165905605,422.0
423,230762.30723353795,423.0
424,230812.1754827586,424.0
425,230871.45437482581,425.0
426,230983.33206759716,426.0
427,230996.46874601606,427.0
428,231006.7925519437,428.0
429,230906.96216711053,429.0
430,230924.52231314604,430.0
431,230914.08783229275,431.0
432,230970.35516579993,432.0
433,231050.92952181207,433.0
434,231231.3332841981,434.0
435,231360.2658149696,435.0
436,231426.32791454782,436.0
437,231474.89462590872,437.0
438,231562.137077498,438.0
439,231650.88704964705,439.0
440,231722.7795777592,440.0
441,231711.05193650484,441.0
442,231739.56116224316,442.0
443,231670.9334017074,443.0
444,231826.95836568324,444.0
445,231861.55476894547,445.0
446,231997.88973825058,446.0
447,232033.11388174808,447.0
448,232087.20179383116,448.0
449,232072.17057789024,449.0
450,232269.65601030292,450.0
451,232218.3355609702,451.0
452,232247.22943215893,452.0
453,232286.43944742775,453.0
454,232240.89823201392,454.0
455,232275.50951359203,455.0
456,232344.49162603528,456.0
457,232365.41642659504,457.0
458,232257.83667572006,458.0
459,232521.27689863104,459.0
460,232518.63603253066,460.0
461,232620.22791956173,461.0
462,232591.09762822217,462.0
463,232691.41421796233,463.0
464,232827.23196602426,464.0
465,232818.4402643218,465.0
466,232790.59503161616,466.0
467,232924.2818496246,467.0
468,233045.05635971122,468.0
469,233012.79956646907,469.0
470,233033.49337407306,470.0
471,232955.52600077118,471.0
472,233149.52320582783,472.0
473,233112.63274530534,473.0
474,233134.10819725844,474.0
475,233116.12908168705,475.0
476,233133.22574013157,476.0
477,233188.9368768195,477.0
478,233181.78970715523,478.0
479,233091.9807571909,479.0
480,233151.82161978868,480.0
481,233229.36595880054,481.0
482,233299.6291476604,482.0
483,233232.1162827983,483.0
484,233227.26020857814,484.0
485,233140.10880206805,485.0
486,233346.6402494208,486.0
487,233369.76314929,487.0
488,233295.92733739837,488.0
489,233367.33982059694,489.0
490,233343.72921273182,490.0
491,233620.5324006783,491.0
492,233664.5686900173,492.0
493,233627.63833426696,493.0
494,233691.50088962723,494.0
495,233816.94289684086,495.0
496,233832.73460541473,496.0
497,233874.51587413508,497.0
498,233895.93993235024,498.0
499,233870.722499272,499.0
500,234045.53986249267,500.0
501,234072.74034307266,501.0
502,234120.96943141043,502.0
503,234310.8466926862,503.0
504,234206.17686718036,504.0
505,234223.6304820398,505.0
506,234263.70873977343,506.0
507,234301.78869203932,507.0
508,234283.10845407663,508.0
509,234372.99483204135,509.0
510,234425.28954007474,510.0
511,234384.72656493002,511.0
512,234350.22876850195,512.0
513,234403.0330313015,513.0
514,234292.17490992465,514.0
515,234311.13095310473,515.0
516,234537.3932676438,516.0
517,234599.46715875494,517.0
518,234546.94833189796,518.0
519,234669.87479787154,519.0
520,234651.775824005,520.0
521,234539.25272094927,521.0
522,234695.07108891333,522.0
523,234807.9096154672,523.0
524,234707.814697609,524.0
525,234794.07335210821,525.0
526,234799.22408026757,526.0
527,234942.2593271386,527.0
528,234903.4902742347,528.0
529,234989.0567294385,529.0
530,235010.0055297619,530.0
531,235043.6359069306,531.0
532,235035.60216726776,532.0
533,235074.81123430314,533.0
534,235269.58510989262,534.0
535,235281.09635814553,535.0
536,235237.31874187104,536.0
537,235229.171082645,537.0
538,235394.01751307127,538.0
539,235364.41788174093,539.0
540,235386.00720228933,540.0
541,235393.13757691954,541.0
542,235620.87729931192,542.0
543,235624.85084414133,543.0
544,235831.6568239796,544.0
545,235794.92351424156,545.0
546,235801.5683023363,546.0
547,235775.33308498666,547.0
548,235684.77348761584,548.0
549,235616.40393664446,549.0
550,235748.2632372489,550.0
551,235724.7174340225,551.0
552,235680.63324428428,552.0
553,235726.56715922503,553.0
554,235678.61295458965,554.0
555,235730.1949774549,555.0
556,235714.15706343632,556.0
557,235763.97657758786,557.0
558,235566.59043841655,558.0
559,235422.76569833222,559.0
560,235811.60102341181,560.0
561,236012.17596783512,561.0
562,235849.08127388376,562.0
563,235946.89560707507,563.0
564,236018.13300177528,564.0
565,236050.5267857143,565.0
566,236062.64549915577,566.0
567,236189.8070760565,567.0
568,236223.26904359716,568.0
569,236154.93616441908,569.0
570,236031.44829896907,570.0
571,236239.19597669403,571.0
572,236254.54868850403,572.0
573,236068.18475523771,573.0
574,236034.51658682487,574.0
575,235741.51056022602,575.0
576,235641.36420191967,576.0
577,235915.634061619,577.0
578,236176.43629100083,578.0
579,236346.70882670922,579.0
580,236203.23812340494,580.0
581,236364.42732590684,581.0
582,236407.49488676264,582.0
583,236414.68919178488,583.0
584,236536.436395202,584.0
585,236694.49913669736,585.0
586,236721.79465295226,586.0
587,236803.97240657217,587.0
588,236766.1497382199,588.0
589,236849.0422639123,589.0
590,236735.83698669073,590.0
591,236896.42329390044,591.0
592,236940.38402276012,592.0
593,236816.41433130804,593.0
594,236811.62419767893,594.0
595,236895.3075184812,595.0
596,237000.9922555087,596.0
597,237098.83564601943,597.0
598,237230.35653562736,598.0
599,237270.83800591758,599.0
600,237026.131159343,600.0
601,237151.10971861638,601.0
602,236995.29535681955,602.0
603,237098.56427083333,603.0
604,237180.07878652355,604.0
605,237228.87852272726,605.0
606,237274.04351072252,606.0
607,237292.95568778377,607.0
608,237168.70477930483,608.0
609,237187.68061786296,609.0
610,237484.60698701208,610.0
611,237739.4002997602,611.0
612,237587.89120281202,612.0
613,237482.7418191057,613.0
614,237211.1353169014,614.0
615,237443.0125299222,615.0
616,237290.26730327398,616.0
617,237218.5329089506,617.0
618,237283.85110629562,618.0
619,237148.37838273196,619.0
620,237006.85091699575,620.0
621,237278.6913425345,621.0
622,237188.48308000606,622.0
623,237188.50353174028,623.0
624,236971.41564579553,624.0
625,236913.52431338027,625.0
626,236634.76586681546,626.0
627,236397.41781489333,627.0
628,236228.79731964553,628.0
629,235447.32347059163,629.0
630,235470.6432315869,630.0
631,236115.0310038745,631.0
632,236535.09764081027,632.0
633,236725.18071606202,633.0
634,236942.9553502021,634.0
635,236834.2454529384,635.0
636,237428.20985940454,636.0
637,237464.80131967904,637.0
638,237213.99607234588,638.0
639,237603.41466425962,639.0
640,237677.80837077167,640.0
641,237872.51956042091,641.0
642,238057.42169430273,642.0
643,238012.64573863638,643.0
644,238075.48272579914,644.0
645,238256.89263745444,645.0
646,238128.58370052566,646.0
647,238230.11302674835,647.0
648,238337.5032511646,648.0
649,238364.9690339129,649.0
650,238200.08545300388,650.0
651,238308.1715087073,651.0
652,238243.94884879875,652.0
653,238300.09232215825,653.0
654,238353.2223822892,654.0
655,238300.89185326907,655.0
656,238487.88836640996,656.0
657,238476.51002026076,657.0
658,238564.58362140486,658.0
659,238697.99548220975,659.0
660,238570.30985576924,660.0
661,238639.9012920673,661.0
662,238919.62909667325,662.0
663,238971.97059780944,663.0
664,238687.53305811036,664.0
665,238539.71569341456,665.0
666,238308.92087145257,666.0
667,238575.23241311658,667.0
668,238668.6274029173,668.0
669,238657.43981653076,669.0
670,238662.80927443094,670.0
671,238690.85102722267,671.0
672,238849.67084030877,672.0
673,238834.72828431372,673.0
674,238730.1110544848,674.0
675,238831.95788941954,675.0
676,238951.04740823412,676.0
677,238677.29333556426,677.0
678,238878.97481809297,678.0
679,238850.00291471466,679.0
680,238569.3707963198,680.0
681,238840.3852749122,681.0
682,238987.51640827573,682.0
683,238592.34721606033,683.0
684,238837.18296047352,684.0
685,238957.985665027,685.0
686,239086.29178455076,686.0
687,239100.8813072422,687.0
688,238847.86715401785,688.0
689,238899.53467854648,689.0
690,238743.70337648704,690.0
691,238751.4036121673,691.0
692,238986.92592167074,692.0
693,239089.60951989953,693.0
694,239079.10634289842,694.0
695,239017.5763415673,695.0
696,239201.0562318314,696.0
697,239162.94073807565,697.0
698,238968.5635829208,698.0
699,238923.12082093253,699.0
700,239041.08236867705,700.0
701,238915.43487149532,701.0
702,238829.18839496293,702.0
