,GravPotential_(km/s)^2,SphericalRadius_ckpc
0,-586178.2428853652,0.0
1,-491747.6100288233,1.0
2,-415385.4167757781,2.0
3,-368395.4155410289,3.0
4,-336955.46800408425,4.0
5,-314233.5690237258,5.0
6,-296640.62278974836,6.0
7,-282578.5114421255,7.0
8,-270896.56801149115,8.0
9,-260976.48826061952,9.0
10,-252453.11651231482,10.0
11,-244948.40312122396,11.0
12,-238265.4959790487,12.0
13,-232319.19223125454,13.0
14,-226880.08756601912,14.0
15,-221982.61270690427,15.0
16,-217438.822129075,16.0
17,-213298.16019018483,17.0
18,-209418.27918175922,18.0
19,-205813.84634551496,19.0
20,-202436.93819752755,20.0
21,-199261.39161091682,21.0
22,-196274.18475960643,22.0
23,-193432.56236905206,23.0
24,-190765.78977286094,24.0
25,-188237.81142974074,25.0
26,-185821.53482573366,26.0
27,-183554.0056026117,27.0
28,-181381.9753487407,28.0
29,-179280.2992085376,29.0
30,-177279.30358263382,30.0
31,-175346.26459352332,31.0
32,-173510.2767531223,32.0
33,-171739.14829305836,33.0
34,-170005.39458514226,34.0
35,-168358.56902768425,35.0
36,-166761.2025798344,36.0
37,-165219.41613373117,37.0
38,-163748.72473130218,38.0
39,-162315.8060061013,39.0
40,-160908.5453916281,40.0
41,-159567.13421262463,41.0
42,-158264.96286704967,42.0
43,-157005.59707671165,43.0
44,-155753.10760186374,44.0
45,-154574.40663436017,45.0
46,-153400.92661110152,46.0
47,-152258.1649469454,47.0
48,-151169.64746131882,48.0
49,-150100.99263096426,49.0
50,-149060.69577696646,50.0
51,-148059.060598189,51.0
52,-147077.5277127052,52.0
53,-146115.35887858339,53.0
54,-145179.172775569,54.0
55,-144252.96683061298,55.0
56,-143368.75636313984,56.0
57,-142481.38493242033,57.0
58,-141630.4142622141,58.0
59,-140796.4006563642,59.0
60,-139979.93510209725,60.0
61,-139180.45866313003,61.0
62,-138403.32631097428,62.0
63,-137650.0606416254,63.0
64,-136896.5262542282,64.0
65,-136174.95682401638,65.0
66,-135439.44718223275,66.0
67,-134745.96378678916,67.0
68,-134075.90088388446,68.0
69,-133414.6303106561,69.0
70,-132720.42443424277,70.0
71,-132046.64348144646,71.0
72,-131386.9390177899,72.0
73,-130784.3558059148,73.0
74,-130148.54824688077,74.0
75,-129531.23345719697,75.0
76,-128942.28458287836,76.0
77,-128337.83006952348,77.0
78,-127765.89720832497,78.0
79,-127204.28235131112,79.0
80,-126664.18432834621,80.0
81,-126101.06259432649,81.0
82,-125549.68660686396,82.0
83,-125021.87531173622,83.0
84,-124500.3780392726,84.0
85,-123972.214818639,85.0
86,-123481.87523671662,86.0
87,-122979.67494204683,87.0
88,-122475.17203191337,88.0
89,-121993.08428201913,89.0
90,-121522.78071314769,90.0
91,-121036.31155950573,91.0
92,-120587.62972942137,92.0
93,-120144.70143473394,93.0
94,-119666.46640585156,94.0
95,-119225.61562942712,95.0
96,-118789.75786636058,96.0
97,-118343.00243103772,97.0
98,-117917.9257737923,98.0
99,-117500.55931358934,99.0
100,-117095.87109801815,100.0
101,-116677.65388542211,101.0
102,-116259.8153177216,102.0
103,-115876.7099669107,103.0
104,-115525.29306576977,104.0
105,-115141.75662417446,105.0
106,-114742.95412798754,106.0
107,-114381.86119951334,107.0
108,-114016.24505485372,108.0
109,-113646.06112466146,109.0
110,-113298.38915604001,110.0
111,-112952.13633759231,111.0
112,-112576.47515363249,112.0
113,-112247.21697473855,113.0
114,-111881.0701692229,114.0
115,-111558.90195381663,115.0
116,-111238.71451014453,116.0
117,-110909.87354078775,117.0
118,-110565.32004906992,118.0
119,-110255.14015525478,119.0
120,-109937.87447090482,120.0
121,-109609.97535738308,121.0
122,-109350.69750632974,122.0
123,-109003.25336005152,123.0
124,-108651.9684466849,124.0
125,-108356.74281555743,125.0
126,-108063.43144511527,126.0
127,-107766.55456585859,127.0
128,-107481.71820808618,128.0
129,-107164.59720009434,129.0
130,-106898.07011554622,130.0
131,-106587.6315301623,131.0
132,-106316.57334001538,132.0
133,-106073.00843481079,133.0
134,-105781.25118659923,134.0
135,-105531.72653567254,135.0
136,-105224.9129788617,136.0
137,-104958.1352533716,137.0
138,-104683.7659459527,138.0
139,-104453.00936753582,139.0
140,-104178.6446010684,140.0
141,-103967.93453459657,141.0
142,-103737.13027239821,142.0
143,-103492.72155194373,143.0
144,-103262.34841535432,144.0
145,-103009.10290240575,145.0
146,-102764.91911256568,146.0
147,-102495.30713238532,147.0
148,-102293.68394805043,148.0
149,-102094.66821897014,149.0
150,-101878.31869680092,150.0
151,-101658.97958067445,151.0
152,-101387.30269586176,152.0
153,-101158.22008740522,153.0
154,-100872.91900107378,154.0
155,-100667.11443978272,155.0
156,-100480.30902441464,156.0
157,-100240.82925572107,157.0
158,-99985.21634453119,158.0
159,-99782.18730897547,159.0
160,-99583.58479524536,160.0
161,-99362.96084276585,161.0
162,-99152.26147394971,162.0
163,-98947.33239448414,163.0
164,-98769.8442357334,164.0
165,-98597.64392514997,165.0
166,-98402.9556396887,166.0
167,-98265.14467530433,167.0
168,-98046.8639945527,168.0
169,-97830.62818991866,169.0
170,-97631.29919836576,170.0
171,-97439.00522507337,171.0
172,-97243.80557660636,172.0
173,-97075.93224607517,173.0
174,-96853.85385024936,174.0
175,-96705.56675938908,175.0
176,-96521.27749626005,176.0
177,-96333.90513360019,177.0
178,-96108.84495367447,178.0
179,-95931.09924176235,179.0
180,-95777.01639858318,180.0
181,-95615.46974970741,181.0
182,-95404.38765727935,182.0
183,-95214.6095381398,183.0
184,-95059.82016930956,184.0
185,-94876.98125076556,185.0
186,-94732.48841367823,186.0
187,-94564.84664913366,187.0
188,-94459.54335906461,188.0
189,-94231.17290732694,189.0
190,-94070.95965445993,190.0
191,-93886.7063578956,191.0
192,-93810.89885790712,192.0
193,-93722.72404088844,193.0
194,-93487.5768685714,194.0
195,-93335.14279544874,195.0
196,-93210.8596339514,196.0
197,-93046.41214049504,197.0
198,-92910.60536410757,198.0
199,-92767.06556599852,199.0
200,-92658.88345503938,200.0
201,-92512.69407476156,201.0
202,-92422.7180088335,202.0
203,-92381.92892747921,203.0
204,-92382.30761001905,204.0
205,-92426.45310626326,205.0
206,-92472.70683627125,206.0
207,-92562.28096282987,207.0
208,-92512.06313318507,208.0
209,-92176.66630941222,209.0
210,-91825.81831709656,210.0
211,-91507.65359810248,211.0
212,-91280.42631871393,212.0
213,-90987.04892697626,213.0
214,-90717.84387523681,214.0
215,-90564.44531769399,215.0
216,-90383.63353035231,216.0
217,-90204.60249179848,217.0
218,-90047.96040014898,218.0
219,-89970.24299274634,219.0
220,-89767.02429738714,220.0
221,-89629.05638173762,221.0
222,-89464.30801923957,222.0
223,-89315.56285824811,223.0
224,-89217.17477258596,224.0
225,-89104.7173021267,225.0
226,-89032.02171965106,226.0
227,-88841.8590702571,227.0
228,-88777.30985959404,228.0
229,-88707.33337360263,229.0
230,-88489.27076394539,230.0
231,-88292.87922753637,231.0
232,-88156.978412554,232.0
233,-88037.27718813036,233.0
234,-87935.26177818776,234.0
235,-87761.20095919745,235.0
236,-87700.45490952747,236.0
237,-87598.1867153128,237.0
238,-87397.40708100559,238.0
239,-87307.74724616527,239.0
240,-87122.45500907948,240.0
241,-87037.60615913145,241.0
242,-86978.08146814507,242.0
243,-86804.32722188489,243.0
244,-86820.74250224052,244.0
245,-86631.7924262988,245.0
246,-86551.1257009893,246.0
247,-86472.70310926485,247.0
248,-86370.18322777246,248.0
249,-86302.82341818645,249.0
250,-86230.16862902127,250.0
251,-86133.83808196246,251.0
252,-86070.855711516,252.0
253,-85875.02993155146,253.0
254,-85859.46739105474,254.0
255,-85730.73900176125,255.0
256,-85616.46551037645,256.0
257,-85474.08760784206,257.0
258,-85341.43433663505,258.0
259,-85228.3618796849,259.0
260,-85121.82653629637,260.0
261,-85018.49132534696,261.0
262,-84899.16000675371,262.0
263,-84767.75494833125,263.0
264,-84611.11581824454,264.0
265,-84577.25234251104,265.0
266,-84561.3192060382,266.0
267,-84442.65306680987,267.0
268,-84290.10545840689,268.0
269,-84207.93087912381,269.0
270,-84105.31607938276,270.0
271,-83983.64847252615,271.0
272,-83868.62064669475,272.0
273,-83726.20908977785,273.0
274,-83773.83942875211,274.0
275,-83670.77359720082,275.0
276,-83626.16588392947,276.0
277,-83531.31348408404,277.0
278,-83505.07702358019,278.0
279,-83440.74694844248,279.0
280,-83231.7624836715,280.0
281,-83170.99490171295,281.0
282,-83093.5065133553,282.0
283,-82941.08425964766,283.0
284,-82859.14583571085,284.0
285,-82781.98714337399,285.0
286,-82679.96709417304,286.0
287,-82597.52427875929,287.0
288,-82504.76740322127,288.0
289,-82390.28147627422,289.0
290,-82343.4586835718,290.0
291,-82266.32947341385,291.0
292,-82146.46428159019,292.0
293,-81969.76786153468,293.0
294,-81896.96831341911,294.0
295,-81930.83474728126,295.0
296,-81897.87070105414,296.0
297,-81792.16586306944,297.0
298,-81684.6878516185,298.0
299,-81526.90642735273,299.0
300,-81452.17031800229,300.0
301,-81395.45785195855,301.0
302,-81363.43887376985,302.0
303,-81269.47604369551,303.0
304,-81154.86763131726,304.0
305,-81102.54611787343,305.0
306,-80987.61345663852,306.0
307,-80886.1808806556,307.0
308,-80835.39534990337,308.0
309,-80771.52356060519,309.0
310,-80697.6680418655,310.0
311,-80656.60176671512,311.0
312,-80599.49605901202,312.0
313,-80491.44480599076,313.0
314,-80320.05811307653,314.0
315,-80259.76128264553,315.0
316,-80204.7069530564,316.0
317,-80147.66302762016,317.0
318,-80045.87684721011,318.0
319,-79950.70387098285,319.0
320,-79887.73233082808,320.0
321,-79829.70867702705,321.0
322,-79651.45828545679,322.0
323,-79495.73724738104,323.0
324,-79480.2226067185,324.0
325,-79425.45866968676,325.0
326,-79384.63570325621,326.0
327,-79363.55069951473,327.0
328,-79330.09700526559,328.0
329,-79248.6512010141,329.0
330,-79256.61483966796,330.0
331,-79374.11809948055,331.0
332,-79319.84988567405,332.0
333,-79320.24094606165,333.0
334,-79323.75363373673,334.0
335,-79286.13714605907,335.0
336,-79303.29926117377,336.0
337,-79175.91659742837,337.0
338,-79207.09997438308,338.0
339,-79287.4008610515,339.0
340,-79211.89341940857,340.0
341,-79321.57400233201,341.0
342,-79376.63580995663,342.0
343,-79510.41391086549,343.0
344,-79681.90460338676,344.0
345,-79754.57571411597,345.0
346,-79609.30491796082,346.0
347,-79413.91654673794,347.0
348,-79287.62574986485,348.0
349,-79154.60916196265,349.0
350,-79120.38111173542,350.0
351,-79154.42339074565,351.0
352,-79108.85543519769,352.0
353,-79205.84279083883,353.0
354,-79216.99622525586,354.0
355,-79228.46329637186,355.0
356,-79337.5260145521,356.0
357,-79575.72177202329,357.0
358,-79705.543973044,358.0
359,-79926.15875233269,359.0
360,-80189.08655250382,360.0
361,-80590.39883954679,361.0
362,-81036.14027159299,362.0
363,-80830.83591910927,363.0
364,-80466.93865110123,364.0
365,-80377.20464617808,365.0
366,-80474.6224567589,366.0
367,-80624.0580513021,367.0
368,-80976.06378440971,368.0
369,-80908.77293093607,369.0
370,-80568.31126085551,370.0
371,-80272.71108705392,371.0
372,-80019.48105850583,372.0
373,-79805.54628861374,373.0
374,-79658.2057903038,374.0
375,-79475.58520966272,375.0
376,-79369.5756872246,376.0
377,-79329.93345787728,377.0
378,-79264.52954487316,378.0
379,-79232.7628215799,379.0
380,-79359.71097590732,380.0
381,-79325.85875047583,381.0
382,-79504.29516203482,382.0
383,-79562.97168739891,383.0
384,-79786.32596975057,384.0
385,-80064.63185638907,385.0
386,-80444.7501559888,386.0
387,-81099.53032870805,387.0
388,-81498.89318240868,388.0
389,-82288.11009088646,389.0
390,-83369.68774900398,390.0
391,-84644.75685462916,391.0
392,-85819.69247861611,392.0
393,-88129.06241154001,393.0
394,-90738.55354660348,394.0
395,-90959.52343049193,395.0
396,-88381.09369464376,396.0
397,-86220.68953603996,397.0
398,-84859.36200566067,398.0
399,-83172.54836352165,399.0
400,-82049.54799200642,400.0
401,-81294.36892301777,401.0
402,-80476.71656494637,402.0
403,-79938.67988757027,403.0
404,-79208.92890146111,404.0
405,-78845.19568393554,405.0
406,-78406.83227780994,406.0
407,-78096.18167377204,407.0
408,-77926.14447232698,408.0
409,-77619.35299253537,409.0
410,-77335.06867833798,410.0
411,-77173.81175607412,411.0
412,-76924.77889564479,412.0
413,-76555.3648742563,413.0
414,-76370.90081380209,414.0
415,-76378.44362957016,415.0
416,-76261.45271216746,416.0
417,-75985.11721017637,417.0
418,-75792.60584096542,418.0
419,-75675.73523344942,419.0
420,-75436.31521805646,420.0
421,-75403.24159059463,421.0
422,-75083.29823351446,422.0
423,-75043.01736111111,423.0
424,-74953.98999897513,424.0
425,-74729.19446627788,425.0
426,-74640.59183112187,426.0
427,-74590.16264707109,427.0
428,-74264.35534151575,428.0
429,-74089.62324773901,429.0
430,-74042.09410152755,430.0
431,-74038.37730854805,431.0
432,-74227.67069568128,432.0
433,-74206.65338258466,433.0
434,-74214.42726079324,434.0
435,-74178.4042527985,435.0
436,-74362.26570985052,436.0
437,-73997.62130007918,437.0
438,-73822.08061381863,438.0
439,-73540.64622292567,439.0
440,-73389.2363096574,440.0
441,-73283.09457195837,441.0
442,-73212.65977440099,442.0
443,-73103.62989723886,443.0
444,-73106.78828037021,444.0
445,-72857.89781362934,445.0
446,-72834.81191233407,446.0
447,-72935.81078917727,447.0
448,-72880.53830042732,448.0
449,-72766.42961558665,449.0
450,-72756.66021428206,450.0
451,-72770.55882302049,451.0
452,-72815.70401964846,452.0
453,-73020.26100979757,453.0
454,-72735.59574252521,454.0
455,-72681.22147215421,455.0
456,-72471.91183539963,456.0
457,-72376.78607354018,457.0
458,-72323.61887274277,458.0
459,-72310.8979749689,459.0
460,-72275.80674264971,460.0
461,-72189.49186801896,461.0
462,-72246.30429674935,462.0
463,-72076.77194043617,463.0
464,-72046.16288988982,464.0
465,-72086.82477449471,465.0
466,-72093.05921068658,466.0
467,-72222.65188061596,467.0
468,-72089.43544113151,468.0
469,-72002.34415265768,469.0
470,-72039.32352190641,470.0
471,-72132.96212246349,471.0
472,-72258.34988310438,472.0
473,-72437.20248225113,473.0
474,-72165.79468318731,474.0
475,-71979.76723476741,475.0
476,-71858.10772978999,476.0
477,-71772.17122024234,477.0
478,-71619.64045754394,478.0
479,-71608.01375679347,479.0
480,-71707.92776998278,480.0
481,-71499.94964887136,481.0
482,-71377.49678615968,482.0
483,-71389.69850965614,483.0
484,-71270.52548742954,484.0
485,-71072.05592493898,485.0
486,-71222.8825957186,486.0
487,-71184.52084832582,487.0
488,-71132.08852431353,488.0
489,-71045.02700794647,489.0
490,-70946.86129413365,490.0
491,-71018.68626376428,491.0
492,-71152.69468064726,492.0
493,-70976.89305351906,493.0
494,-70907.65535977023,494.0
495,-70899.14247638974,495.0
496,-70880.50826607166,496.0
497,-70800.91054138704,497.0
498,-70568.2587706738,498.0
499,-70593.28455955817,499.0
500,-70600.11985394919,500.0
501,-70559.4172427721,501.0
502,-70617.53086918546,502.0
503,-70398.94771193212,503.0
504,-70183.33170634853,504.0
505,-70175.5882970222,505.0
506,-69946.85023610106,506.0
507,-70185.73527991034,507.0
508,-70314.20292789032,508.0
509,-70166.09357312188,509.0
510,-69941.5157079924,510.0
511,-70109.08691110501,511.0
512,-69982.711871001,512.0
513,-69930.42435740925,513.0
514,-69773.3864390372,514.0
515,-69869.92752392933,515.0
516,-69386.6963612368,516.0
517,-69453.99913039849,517.0
518,-69495.98226429927,518.0
519,-69565.21159577546,519.0
520,-69826.67524638471,520.0
521,-69921.93213694441,521.0
522,-69761.30609324876,522.0
523,-69877.26677001253,523.0
524,-69484.79060287817,524.0
525,-69169.25267193309,525.0
526,-69461.5823420547,526.0
527,-69728.71709361588,527.0
528,-69882.61024411094,528.0
529,-69682.71211462087,529.0
530,-69510.9578682041,530.0
531,-69324.73121351606,531.0
532,-69211.01396797768,532.0
533,-69329.87587302155,533.0
534,-69332.93209006354,534.0
535,-69278.60861759164,535.0
536,-69204.05861853193,536.0
537,-68840.45336161362,537.0
538,-68838.43842443543,538.0
539,-68831.09071098756,539.0
540,-68889.49239214866,540.0
541,-68842.38417345412,541.0
542,-69193.53900584558,542.0
543,-69172.84996496908,543.0
544,-69038.80341347647,544.0
545,-68892.95558460928,545.0
546,-68663.54416232639,546.0
547,-68785.48263853225,547.0
548,-68603.61912913603,548.0
549,-68590.37585464929,549.0
550,-68399.13704220796,550.0
551,-68419.0726303504,551.0
552,-68442.84635365824,552.0
553,-68488.49430345096,553.0
554,-68527.85139802631,554.0
555,-68548.54420410871,555.0
556,-68332.27025955815,556.0
557,-68430.0832926754,557.0
558,-68210.8444316169,558.0
559,-68124.94001557819,559.0
560,-68009.5984478664,560.0
561,-67946.48566795659,561.0
562,-67849.89833314008,562.0
563,-68058.60059472098,563.0
564,-68023.01565006014,564.0
565,-67864.70427545952,565.0
566,-67934.52506441245,566.0
567,-67948.6265544769,567.0
568,-67833.67172576879,568.0
569,-67785.16404145514,569.0
570,-67527.81483798905,570.0
571,-67199.33113094924,571.0
572,-67349.41347826652,572.0
573,-67382.86413504709,573.0
574,-67372.81564168756,574.0
575,-67313.38266704592,575.0
576,-67174.91924678844,576.0
577,-66830.99167242282,577.0
578,-67021.57430372905,578.0
579,-66934.54591447176,579.0
580,-67110.9676592738,580.0
581,-67463.19820807525,581.0
582,-67586.57989291487,582.0
583,-67628.58228116087,583.0
584,-67310.33158688399,584.0
585,-67059.81574307385,585.0
586,-66990.04063183024,586.0
587,-66952.02681825281,587.0
588,-67071.04156360081,588.0
589,-66772.72468219785,589.0
590,-66684.69574356692,590.0
591,-66356.92475190034,591.0
592,-66496.97038032656,592.0
593,-66392.59685850474,593.0
594,-66408.91824068618,594.0
595,-66393.85124359673,595.0
596,-66316.06682999089,596.0
597,-66086.02646905424,597.0
598,-65987.15945459621,598.0
599,-66154.01623207978,599.0
600,-66188.79509766947,600.0
601,-66439.07877778624,601.0
602,-66682.88004941898,602.0
603,-67433.19853274968,603.0
604,-68097.7207716131,604.0
605,-68596.48449151752,605.0
606,-68224.9317728162,606.0
607,-67563.15012268943,607.0
608,-67477.19843459573,608.0
609,-67190.23737504131,609.0
610,-67132.10628232187,610.0
611,-66787.71228993242,611.0
612,-66617.94519562229,612.0
613,-66764.20646786242,613.0
614,-66691.7613905864,614.0
615,-66828.88349609375,615.0
616,-66972.58906680885,616.0
617,-67639.35929102199,617.0
618,-67344.67180531104,618.0
619,-66779.3459139887,619.0
620,-66222.3921292454,620.0
621,-65854.41174266582,621.0
622,-65717.82701254045,622.0
623,-65599.10221766631,623.0
624,-65754.62579095163,624.0
625,-65437.60301137352,625.0
626,-65291.08054575493,626.0
627,-65641.23562554254,627.0
628,-65279.31415422464,628.0
629,-65590.74392152659,629.0
630,-65409.00623997594,630.0
631,-65344.838156136546,631.0
632,-65387.66884262411,632.0
633,-65501.153423960925,633.0
634,-65700.46824636399,634.0
635,-65443.23209939642,635.0
636,-65152.31866903519,636.0
637,-65040.8398501642,637.0
638,-64821.21441085842,638.0
639,-64834.770410548794,639.0
640,-65453.42841553906,640.0
641,-65547.22219586426,641.0
642,-65287.58420874529,642.0
643,-65142.9211405565,643.0
644,-65009.273615056816,644.0
645,-65421.369555677,645.0
646,-65103.436025943396,646.0
647,-64936.478305096054,647.0
648,-64930.82938872523,648.0
649,-64564.7792958465,649.0
650,-64572.11569020479,650.0
651,-64661.8321976461,651.0
652,-64542.66193289975,652.0
653,-64939.286794081796,653.0
654,-64946.82475365622,654.0
655,-64857.03693389487,655.0
656,-64847.12522636218,656.0
657,-64745.313601710215,657.0
658,-64760.75878707357,658.0
659,-64717.724563320604,659.0
660,-64603.56726545273,660.0
661,-64929.95440540686,661.0
662,-65003.065998877464,662.0
663,-64827.18061630481,663.0
664,-64750.098455306266,664.0
665,-64898.06207586607,665.0
666,-64510.071044921875,666.0
667,-64737.752870915654,667.0
668,-64992.23732717803,668.0
669,-64811.566758009285,669.0
670,-64575.32106780101,670.0
671,-64659.702705864,671.0
672,-64950.499400797715,672.0
673,-65396.43873309879,673.0
674,-65758.57560147595,674.0
675,-65466.61440258316,675.0
676,-65002.55969385017,676.0
677,-64992.044070177275,677.0
678,-65029.413932575655,678.0
679,-64791.78303450186,679.0
680,-64895.19931260726,680.0
681,-64782.116019431334,681.0
682,-64565.329116847824,682.0
683,-64453.338188839014,683.0
684,-64012.537578896816,684.0
685,-63785.436473893744,685.0
686,-64213.80456345491,686.0
687,-64034.865704531076,687.0
688,-63961.36818518045,688.0
689,-63845.205600435576,689.0
690,-63663.421790692446,690.0
691,-64154.456142879266,691.0
692,-63866.27265761821,692.0
