,GravPotential_(km/s)^2,SphericalRadius_ckpc
0,-283542.9667749357,0.0
1,-258688.76727412947,1.0
2,-236669.67264734168,2.0
3,-220124.73257525306,3.0
4,-207177.76660741985,4.0
5,-196690.87700987048,5.0
6,-188004.85064138172,6.0
7,-180391.12688152678,7.0
8,-173743.8560100472,8.0
9,-167771.1941455792,9.0
10,-162288.72329627295,10.0
11,-157292.89404130093,11.0
12,-152673.062955,12.0
13,-148461.66398426503,13.0
14,-144528.87607494928,14.0
15,-140899.5526208067,15.0
16,-137548.65089044016,16.0
17,-134427.59413093724,17.0
18,-131473.82455577524,18.0
19,-128697.81099800508,19.0
20,-126105.49891643952,20.0
21,-123635.92708069854,21.0
22,-121296.35942977047,22.0
23,-119104.11394722483,23.0
24,-117023.22213944809,24.0
25,-115057.36213025021,25.0
26,-113152.95044575275,26.0
27,-111335.00319791667,27.0
28,-109627.18143711066,28.0
29,-107973.64907556704,29.0
30,-106402.68278093002,30.0
31,-104896.00421581275,31.0
32,-103414.9884054693,32.0
33,-102029.56589276496,33.0
34,-100678.51659260817,34.0
35,-99382.57371367437,35.0
36,-98124.83769319399,36.0
37,-96926.86919502214,37.0
38,-95750.78916044354,38.0
39,-94607.51186724287,39.0
40,-93523.90390310885,40.0
41,-92450.3814631813,41.0
42,-91436.21511832498,42.0
43,-90432.55456164638,43.0
44,-89457.37532657197,44.0
45,-88492.53768556824,45.0
46,-87564.96996069701,46.0
47,-86638.22276133242,47.0
48,-85774.53189391612,48.0
49,-84896.0020175719,49.0
50,-84044.31971600091,50.0
51,-83221.76487912054,51.0
52,-82417.81970554338,52.0
53,-81643.21647616412,53.0
54,-80863.68073797139,54.0
55,-80113.50933137813,55.0
56,-79381.45485542044,56.0
57,-78669.30323522042,57.0
58,-77941.60073842022,58.0
59,-77254.60314331476,59.0
60,-76558.08156912544,60.0
61,-75886.03303843438,61.0
62,-75230.78265763076,62.0
63,-74585.27935663787,63.0
64,-73965.5765359667,64.0
65,-73365.2564296912,65.0
66,-72742.15949329121,66.0
67,-72155.23434778134,67.0
68,-71550.47919985969,68.0
69,-70980.44317399396,69.0
70,-70399.04725196947,70.0
71,-69843.54678528116,71.0
72,-69311.30908901856,72.0
73,-68758.06006008832,73.0
74,-68239.51430818455,74.0
75,-67730.26673134795,75.0
76,-67227.35116504208,76.0
77,-66727.55442319202,77.0
78,-66229.85661212375,78.0
79,-65752.62087637228,79.0
80,-65280.247474259915,80.0
81,-64809.30703733641,81.0
82,-64328.86423001576,82.0
83,-63861.17556717512,83.0
84,-63416.23975454231,84.0
85,-62993.53928207535,85.0
86,-62536.58381063041,86.0
87,-62129.04189060206,87.0
88,-61706.74217766353,88.0
89,-61293.729337783276,89.0
90,-60879.87280552406,90.0
91,-60471.97242492275,91.0
92,-60116.591728278436,92.0
93,-59698.22742670648,93.0
94,-59328.08871450094,94.0
95,-58955.26205739531,95.0
96,-58587.11674496138,96.0
97,-58251.59171916686,97.0
98,-57914.31622841586,98.0
99,-57567.97969143802,99.0
100,-57241.650386808986,100.0
101,-56930.207094595775,101.0
102,-56627.30827953731,102.0
103,-56386.163294637925,103.0
104,-56123.16730734289,104.0
105,-55701.743897628076,105.0
106,-55278.96507457973,106.0
107,-54907.276699208946,107.0
108,-54570.82642914384,108.0
109,-54192.422751405065,109.0
110,-53878.80193695051,110.0
111,-53563.66208622949,111.0
112,-53240.184974532334,112.0
113,-52882.21225647834,113.0
114,-52561.37427105892,114.0
115,-52249.92725810637,115.0
116,-51947.458268556686,116.0
117,-51674.801711885666,117.0
118,-51380.48512913831,118.0
119,-51097.38206228267,119.0
120,-50754.09223411823,120.0
121,-50490.40563915964,121.0
122,-50230.79911365334,122.0
123,-49948.34217002958,123.0
124,-49694.72993206266,124.0
125,-49418.60896081561,125.0
126,-49145.73400524045,126.0
127,-48861.818944864805,127.0
128,-48637.736567608095,128.0
129,-48381.31520852874,129.0
130,-48109.731294311976,130.0
131,-47855.71221704994,131.0
132,-47635.78208571976,132.0
133,-47398.96675736459,133.0
134,-47159.53952362624,134.0
135,-46898.72080570704,135.0
136,-46678.68820212465,136.0
137,-46457.70199861025,137.0
138,-46225.55747433704,138.0
139,-46021.6708178556,139.0
140,-45772.055742116114,140.0
141,-45578.926374424074,141.0
142,-45355.841767156344,142.0
143,-45136.61451946454,143.0
144,-44916.6308550955,144.0
145,-44687.76999741883,145.0
146,-44523.811042798916,146.0
147,-44316.0639067184,147.0
148,-44109.7620022836,148.0
149,-43896.912935198,149.0
150,-43715.23877113775,150.0
151,-43488.62335171331,151.0
152,-43272.47359461026,152.0
153,-43028.92838578997,153.0
154,-42841.49712387609,154.0
155,-42677.832982460604,155.0
156,-42506.36307325389,156.0
157,-42324.02452231842,157.0
158,-42156.890478108646,158.0
159,-42001.45454634003,159.0
160,-41840.08440041355,160.0
161,-41649.95390465533,161.0
162,-41414.67494615507,162.0
163,-41218.29291073275,163.0
164,-41119.62323742826,164.0
165,-40934.868808395266,165.0
166,-40763.18061154348,166.0
167,-40594.80447982688,167.0
168,-40369.16119975654,168.0
169,-40260.87437420701,169.0
170,-40085.03571681625,170.0
171,-39937.05022473411,171.0
172,-39745.176989456195,172.0
173,-39667.550283640856,173.0
174,-39538.86475555375,174.0
175,-39309.76561584587,175.0
176,-39128.34960993076,176.0
177,-38943.99406994799,177.0
178,-38754.58414626928,178.0
179,-38598.58515836721,179.0
180,-38485.51035738761,180.0
181,-38318.83410570937,181.0
182,-38233.26615799113,182.0
183,-38085.349787784624,183.0
184,-37901.86324737254,184.0
185,-37737.7247550656,185.0
186,-37548.39068505216,186.0
187,-37421.21941230163,187.0
188,-37283.70902239854,188.0
189,-37126.3323442856,189.0
190,-36962.61942911836,190.0
191,-36843.171678425584,191.0
192,-36690.66156381799,192.0
193,-36574.35436156677,193.0
194,-36431.98473319693,194.0
195,-36287.267513403596,195.0
196,-36151.02559714982,196.0
197,-36061.861937000904,197.0
198,-35900.13322999429,198.0
199,-35805.34375356657,199.0
200,-35660.2212678114,200.0
201,-35516.5156888309,201.0
202,-35391.79642121483,202.0
203,-35260.80780630644,203.0
204,-35191.8300278941,204.0
205,-35138.089391716705,205.0
206,-34961.719300166595,206.0
207,-34775.04673927578,207.0
208,-34659.07939142265,208.0
209,-34523.17879857038,209.0
210,-34377.14792888076,210.0
211,-34243.447529725214,211.0
212,-34100.9854021061,212.0
213,-33979.229649799374,213.0
214,-33824.22794760318,214.0
215,-33707.12941317824,215.0
216,-33610.37549479615,216.0
217,-33480.62782300561,217.0
218,-33351.50429616144,218.0
219,-33268.91003997837,219.0
220,-33125.50851179878,220.0
221,-33017.375833632665,221.0
222,-32928.34148036859,222.0
223,-32846.59037847207,223.0
224,-32723.79567034252,224.0
225,-32618.766033087835,225.0
226,-32525.837016325655,226.0
227,-32350.928336565215,227.0
228,-32263.60829116328,228.0
229,-32159.40028522385,229.0
230,-32139.04577794691,230.0
231,-32079.682605104048,231.0
232,-31920.842890043157,232.0
233,-31759.149350710297,233.0
234,-31657.66607494002,234.0
235,-31530.94054619025,235.0
236,-31399.22988143895,236.0
237,-31296.24824098015,237.0
238,-31134.552984007696,238.0
239,-31056.298331680995,239.0
240,-30941.179959435096,240.0
241,-30832.494188543424,241.0
242,-30716.595894575305,242.0
243,-30675.51162903779,243.0
244,-30527.703159677996,244.0
245,-30399.435711378035,245.0
246,-30315.63605229693,246.0
247,-30199.02981146518,247.0
248,-30132.21906292206,248.0
249,-30044.258470512363,249.0
250,-29983.758522030697,250.0
251,-29849.195415417504,251.0
252,-29732.19836868115,252.0
253,-29657.333330613408,253.0
254,-29552.445403886522,254.0
255,-29485.58653857313,255.0
256,-29368.999753350803,256.0
257,-29267.06179551179,257.0
258,-29202.94112288665,258.0
259,-29181.49832729646,259.0
260,-29119.83540526781,260.0
261,-28937.311136040807,261.0
262,-28907.010768568038,262.0
263,-28755.899946364705,263.0
264,-28658.95134381182,264.0
265,-28596.986774015273,265.0
266,-28541.644798488862,266.0
267,-28440.64538047633,267.0
268,-28397.75889002632,268.0
269,-28332.545525634017,269.0
270,-28290.469024349946,270.0
271,-28321.03833587804,271.0
272,-28343.532995452442,272.0
273,-28576.21415865774,273.0
274,-28676.285763337743,274.0
275,-28264.145700829737,275.0
276,-27986.80713596278,276.0
277,-27751.284182950996,277.0
278,-27572.555867007104,278.0
279,-27423.03402711931,279.0
280,-27263.195233137594,280.0
281,-27199.061566713885,281.0
282,-27065.853968046602,282.0
283,-27015.953937724385,283.0
284,-26914.248243757433,284.0
285,-26881.81067061377,285.0
286,-26737.27295205784,286.0
287,-26649.241495697854,287.0
288,-26513.655581980664,288.0
289,-26450.46809774822,289.0
290,-26372.21401097638,290.0
291,-26354.144861417375,291.0
292,-26268.80871494925,292.0
293,-26212.50220334986,293.0
294,-26127.516668188906,294.0
295,-25998.27819315039,295.0
296,-25797.88205338716,296.0
297,-25801.750255017956,297.0
298,-25747.363831703846,298.0
299,-25632.485168783423,299.0
300,-25578.64147796674,300.0
301,-25519.942100276538,301.0
302,-25431.849293139603,302.0
303,-25384.452250794733,303.0
304,-25257.489106822104,304.0
305,-25215.79815866043,305.0
306,-25204.487518023863,306.0
307,-25138.808083406366,307.0
308,-25046.805479464492,308.0
309,-24929.66263590785,309.0
310,-24815.08028139717,310.0
311,-24698.389693000812,311.0
312,-24733.257455479114,312.0
313,-24639.696485027613,313.0
314,-24605.688013541003,314.0
315,-24484.23935857327,315.0
316,-24427.239785619528,316.0
317,-24301.625093364495,317.0
318,-24268.227043030754,318.0
319,-24255.66361783348,319.0
320,-24205.833508088566,320.0
321,-24107.252147222054,321.0
322,-24102.767619591406,322.0
323,-24081.807958524136,323.0
324,-23982.94930072073,324.0
325,-23962.940912125734,325.0
326,-23898.60043091094,326.0
327,-24003.929172593827,327.0
328,-23939.036233694744,328.0
329,-23838.643101030324,329.0
330,-23728.937694077627,330.0
331,-23663.787898822597,331.0
332,-23541.481545112165,332.0
333,-23551.35695765689,333.0
334,-23484.86559400612,334.0
335,-23418.169961149582,335.0
336,-23263.542175366594,336.0
337,-23092.47876916598,337.0
338,-23010.083457509674,338.0
339,-22981.66603283143,339.0
340,-22895.6999498209,340.0
341,-22907.362857124986,341.0
342,-22833.111334043562,342.0
343,-22732.549436361798,343.0
344,-22631.6636423593,344.0
345,-22585.602338685647,345.0
346,-22489.798432465508,346.0
347,-22434.25558170284,347.0
348,-22406.114851897197,348.0
349,-22332.39912883949,349.0
350,-22268.96532083141,350.0
351,-22213.094761084736,351.0
352,-22147.64164623743,352.0
353,-22205.456744219806,353.0
354,-22190.597862157534,354.0
355,-22169.273718085547,355.0
356,-21978.664892561363,356.0
357,-21963.453251534025,357.0
358,-21836.47654580266,358.0
359,-21904.064791294117,359.0
360,-21895.81721989922,360.0
361,-21745.399461897046,361.0
362,-21631.52399176203,362.0
363,-21571.717984176164,363.0
364,-21535.099755901105,364.0
365,-21409.133722215905,365.0
366,-21389.388566868278,366.0
367,-21365.668633734967,367.0
368,-21470.031336813474,368.0
369,-21323.164740338074,369.0
370,-21213.59682528996,370.0
371,-21151.578483444442,371.0
372,-21069.92559713813,372.0
373,-20955.046787021398,373.0
374,-20923.1022186745,374.0
375,-20849.45370553659,375.0
376,-20782.842334973346,376.0
377,-20681.81821888325,377.0
378,-20543.41456741442,378.0
379,-20601.515378263757,379.0
380,-20538.304157999395,380.0
381,-20502.811540321094,381.0
382,-20474.95069199984,382.0
383,-20433.134409564616,383.0
384,-20269.657488392517,384.0
385,-20285.82240948012,385.0
386,-20158.701937761212,386.0
387,-20115.381511783846,387.0
388,-20137.66172634834,388.0
389,-19964.393922890806,389.0
390,-19833.289083854605,390.0
391,-19839.517582700322,391.0
392,-19826.111679487098,392.0
393,-19730.65478113527,393.0
394,-19721.074476172456,394.0
395,-19706.040204026027,395.0
396,-19676.747719617822,396.0
397,-19652.44806183136,397.0
398,-19612.968716898406,398.0
399,-19656.667346905895,399.0
400,-19865.32034254251,400.0
401,-19948.96463495653,401.0
402,-19661.22158200751,402.0
403,-19434.622780528556,403.0
404,-19308.98731620483,404.0
405,-19188.603738867525,405.0
406,-19138.87599644564,406.0
407,-19132.168080047217,407.0
408,-19137.22675472193,408.0
409,-19011.85555334339,409.0
410,-18899.219104398926,410.0
411,-18864.919845621404,411.0
412,-18857.032381893165,412.0
413,-18801.878535369273,413.0
414,-18851.236312891007,414.0
415,-18704.287263115344,415.0
416,-18761.306333828114,416.0
417,-18680.033248022562,417.0
418,-18739.015410244774,418.0
419,-18641.730191909774,419.0
420,-18611.59928641338,420.0
421,-18544.74291148595,421.0
422,-18448.94937377611,422.0
423,-18482.300039677826,423.0
424,-18370.542516458485,424.0
425,-18297.806627472644,425.0
426,-18197.33354026164,426.0
427,-18262.876360087757,427.0
428,-18147.980278188534,428.0
429,-18106.0479538624,429.0
430,-18069.399031734974,430.0
431,-18308.172697283837,431.0
432,-18307.250881555156,432.0
433,-18301.072855179398,433.0
434,-18531.817245263992,434.0
435,-18589.510418720925,435.0
436,-18287.28883267003,436.0
437,-18051.34922710218,437.0
438,-18057.314862519328,438.0
439,-17926.024867838285,439.0
440,-17837.716539813013,440.0
441,-17730.508460838646,441.0
442,-17708.83296167874,442.0
443,-17744.700173232348,443.0
444,-17565.43842463449,444.0
445,-17608.251511765375,445.0
446,-17604.579365168524,446.0
447,-17521.657861972915,447.0
448,-17275.416781871838,448.0
449,-17328.228876442518,449.0
450,-17208.96743915126,450.0
451,-17416.833702376978,451.0
452,-17382.663937396155,452.0
453,-17349.90827320469,453.0
454,-17273.450223197335,454.0
455,-17149.035433903944,455.0
456,-17247.14665007687,456.0
457,-17182.42286808367,457.0
458,-17109.359053264292,458.0
459,-17126.83441172402,459.0
460,-17236.60914607047,460.0
461,-17093.399687941477,461.0
462,-17102.205497638533,462.0
463,-17184.631298037097,463.0
464,-16995.14123017887,464.0
465,-16984.542417852095,465.0
466,-16947.080910856017,466.0
467,-16934.13186260485,467.0
468,-16959.369583281965,468.0
469,-17196.61588968083,469.0
470,-17486.0256572985,470.0
471,-17143.66329106121,471.0
472,-17090.950603421614,472.0
473,-17106.72569218602,473.0
474,-16921.618800053366,474.0
475,-17131.37970738731,475.0
476,-17040.08269854162,476.0
477,-17038.174976953032,477.0
478,-17019.380612320456,478.0
479,-16916.353999269202,479.0
480,-16921.51996622443,480.0
481,-16991.197381586244,481.0
482,-17228.561599571647,482.0
483,-17353.70661105245,483.0
484,-17360.367852466614,484.0
485,-17165.129484480552,485.0
486,-17133.83148223292,486.0
487,-16721.372095178674,487.0
488,-16638.91029014958,488.0
489,-16585.283844847203,489.0
490,-16781.84277517207,490.0
491,-16877.15366285118,491.0
492,-16852.007640139578,492.0
493,-16830.484401531015,493.0
494,-17087.190098685387,494.0
495,-17143.220161798352,495.0
496,-17263.99573526227,496.0
497,-17442.821689327386,497.0
498,-17635.489258670263,498.0
499,-17457.238508928807,499.0
500,-17478.15610695657,500.0
501,-17687.46130791344,501.0
502,-17501.52463270172,502.0
503,-17374.05727265168,503.0
504,-17502.307475724705,504.0
505,-17355.286465722733,505.0
506,-17617.30072012166,506.0
507,-17439.855912217503,507.0
508,-17449.71016602579,508.0
509,-17584.486402821418,509.0
510,-17735.974228414776,510.0
511,-17901.655441853363,511.0
512,-17922.520725784732,512.0
513,-18299.89667551005,513.0
514,-18781.737853827715,514.0
515,-19020.469466036324,515.0
516,-19075.836879905968,516.0
517,-19207.40199969327,517.0
518,-19366.921180998746,518.0
519,-19695.795183806236,519.0
520,-20073.09501387309,520.0
521,-20391.921564347464,521.0
522,-20686.929692536225,522.0
523,-21185.632042548164,523.0
524,-21496.679724550526,524.0
525,-22103.411201208393,525.0
526,-22636.899366412807,526.0
527,-22936.570085787702,527.0
528,-23656.921817346316,528.0
529,-24465.748957092015,529.0
530,-24985.57791777501,530.0
531,-25753.414429607936,531.0
532,-27208.51856779572,532.0
533,-28430.45216615344,533.0
534,-29960.057967851055,534.0
535,-31215.25257608364,535.0
536,-32654.605387272313,536.0
537,-35335.67230128052,537.0
538,-36035.469943177464,538.0
539,-34068.27382532342,539.0
540,-31599.547091841832,540.0
541,-29930.673045135383,541.0
542,-28412.726280200375,542.0
543,-27292.535551449244,543.0
544,-26514.043278726298,544.0
545,-25511.352567399616,545.0
546,-24937.906652096888,546.0
547,-24190.658653170634,547.0
548,-23651.985370589573,548.0
549,-22934.864592751957,549.0
550,-22364.303542309848,550.0
551,-21699.436865327832,551.0
552,-21296.811158128923,552.0
553,-20668.33956133004,553.0
554,-20681.70697101583,554.0
555,-20149.432491202268,555.0
556,-19876.246195377047,556.0
557,-19606.460769233352,557.0
558,-19412.850034195933,558.0
559,-18999.84882858659,559.0
560,-18862.892972259844,560.0
561,-18851.920982203446,561.0
562,-18437.421883355844,562.0
563,-18427.38041509022,563.0
564,-18324.453907128536,564.0
565,-17688.041298787364,565.0
566,-17568.45147596732,566.0
567,-17399.41185247399,567.0
568,-17184.412898754785,568.0
569,-17254.96485074361,569.0
570,-16876.24375488152,570.0
571,-16899.063389457377,571.0
572,-16443.37421357981,572.0
573,-16410.885587169152,573.0
574,-16243.285242649046,574.0
575,-16219.65645098005,575.0
576,-16008.515959684288,576.0
577,-15942.893397327429,577.0
578,-15786.40081383228,578.0
579,-15884.130129112387,579.0
580,-15658.74172077922,580.0
581,-15308.832298433595,581.0
582,-15345.189903441798,582.0
583,-15452.049502923623,583.0
584,-15573.961554538217,584.0
585,-15289.634305860012,585.0
586,-15577.960866868121,586.0
587,-15534.501901176916,587.0
588,-15738.91731118147,588.0
589,-15714.723998949945,589.0
590,-16297.75304818253,590.0
591,-16568.634979273684,591.0
592,-17123.585830005246,592.0
593,-17149.33388610456,593.0
594,-16415.91037557162,594.0
595,-15915.705365570591,595.0
596,-15536.858444650918,596.0
597,-15235.71296938248,597.0
598,-15198.929451024589,598.0
599,-14593.593979074865,599.0
600,-14368.966253057954,600.0
601,-14340.449994398365,601.0
602,-14395.500261096055,602.0
603,-14286.452497423792,603.0
604,-13958.726057542233,604.0
605,-14083.724437748724,605.0
606,-14048.78584766973,606.0
607,-13963.45432029106,607.0
608,-13790.974375007376,608.0
609,-13826.592081504063,609.0
610,-13639.31186757237,610.0
611,-14001.034601628127,611.0
612,-13446.493281155697,612.0
613,-13637.82695235403,613.0
614,-13495.178522616938,614.0
615,-13359.331930059054,615.0
616,-13360.595739174882,616.0
617,-13267.228218151427,617.0
618,-13367.054751392647,618.0
619,-13409.835662841797,619.0
620,-13524.234613074554,620.0
621,-13644.261776685638,621.0
622,-13611.726268463792,622.0
623,-13577.080237646403,623.0
624,-13430.057405107364,624.0
625,-13491.859095970993,625.0
626,-13705.160356839595,626.0
627,-13653.970512910428,627.0
628,-13709.600764935696,628.0
629,-13754.006097849186,629.0
630,-13886.812577124056,630.0
631,-14040.313568541627,631.0
632,-14228.389078118424,632.0
633,-14304.881978858086,633.0
634,-13896.06270129864,634.0
635,-13675.22600339643,635.0
636,-13415.741471649073,636.0
637,-13215.667246683528,637.0
638,-13249.264516473615,638.0
639,-13177.758971174419,639.0
640,-13120.895995776169,640.0
641,-13219.72827644689,641.0
642,-13082.691411834403,642.0
643,-12888.270464787378,643.0
644,-12855.284141791812,644.0
645,-12643.249443151975,645.0
646,-12554.250569369564,646.0
647,-12333.64873167307,647.0
648,-12294.913315778836,648.0
649,-12195.546054807224,649.0
650,-12069.808406382524,650.0
651,-12365.605063188266,651.0
652,-12258.593109367097,652.0
653,-12258.822986814788,653.0
654,-12138.190219171314,654.0
655,-12182.83924088148,655.0
656,-12071.818353467528,656.0
657,-11922.073931326975,657.0
658,-11856.410134083386,658.0
659,-11846.211798136666,659.0
660,-11863.990175832158,660.0
661,-11550.286661037406,661.0
662,-11706.46170613283,662.0
663,-11734.439744239915,663.0
664,-11876.39603195977,664.0
665,-11875.581183061398,665.0
666,-11715.274929646792,666.0
667,-11606.221148518258,667.0
668,-11887.76298851894,668.0
669,-11544.957086570046,669.0
670,-11681.741537691942,670.0
671,-11350.124912208134,671.0
672,-11413.528655433296,672.0
673,-11353.31429312487,673.0
674,-11465.849587798277,674.0
675,-11441.346232967895,675.0
676,-11224.241084750607,676.0
677,-11341.235863325617,677.0
678,-11583.550442564721,678.0
679,-11409.624547655338,679.0
680,-11620.109290071236,680.0
681,-11570.723645366554,681.0
682,-11679.452158044423,682.0
